1608710761.00
64.000000
-0.00
-0.00
-0.00
-0.00
-0.00
-0.00
-0.00
-0.00
-0.00
-0.00
0.00
0.01
0.01
-0.00
-0.03
-0.05
-0.05
0.00
0.13
0.36
0.66
1.01
1.37
1.72
2.06
2.40
2.79
3.24
3.80
4.42
5.06
5.66
6.20
6.68
7.15
7.68
8.31
9.14
10.09
11.04
11.88
12.56
13.14
13.76
14.65
15.96
17.91
20.32
22.90
25.38
27.58
29.57
31.68
34.32
37.81
42.54
48.15
54.10
59.83
64.97
69.58
74.14
79.34
85.71
93.76
103.00
112.62
121.73
129.77
136.75
143.30
150.75
157.77
166.64
177.95
191.79
206.97
220.57
228.25
225.36
208.53
176.87
132.76
80.05
23.07
-34.94
-92.44
-149.16
-205.23
-260.37
-313.74
-363.87
-409.83
-450.91
-486.50
-515.74
-537.23
-549.22
-549.96
-538.37
-514.21
-478.67
-433.88
-382.45
-327.02
-269.84
-212.63
-156.66
-102.95
-52.37
-5.90
35.58
71.43
101.35
125.50
144.38
158.69
169.15
176.37
180.75
182.57
182.07
179.51
175.23
169.65
163.18
156.15
148.81
141.30
133.69
126.02
118.33
110.69
103.16
95.80
88.68
81.83
75.25
68.95
62.95
57.25
51.86
46.78
42.03
37.59
33.45
29.61
26.07
22.81
19.83
17.11
14.67
12.48
10.54
8.83
7.35
6.07
4.97
4.05
3.27
2.62
2.09
1.65
1.30
1.01
0.79
0.61
0.47
0.37
0.29
0.23
0.19
0.17
0.16
0.16
0.17
0.19
0.21
0.24
0.28
0.32
0.36
0.41
0.45
0.50
0.55
0.59
0.65
0.70
0.76
0.82
0.89
0.97
1.05
1.15
1.25
1.37
1.50
1.65
1.82
2.00
2.21
2.44
2.69
2.97
3.28
3.62
3.99
4.39
4.83
5.31
5.82
6.37
6.96
7.60
8.27
8.99
9.76
10.57
11.42
12.32
13.26
14.26
15.33
16.45
17.64
18.89
20.16
21.43
22.62
23.66
24.43
24.82
24.70
23.96
22.53
20.35
17.47
13.95
9.87
5.43
0.86
-3.66
-7.90
-11.67
-14.80
-17.20
-18.82
-19.66
-19.76
-19.22
-18.15
-16.68
-14.93
-13.00
-11.01
-9.03
-7.13
-5.32
-3.63
-2.06
-0.57
0.92
2.43
3.99
5.62
7.33
9.18
11.10
13.09
15.19
17.44
19.84
22.38
25.03
27.78
30.72
33.69
36.68
39.81
43.16
46.76
50.55
54.39
58.21
62.08
65.75
69.27
72.87
76.76
80.95
85.26
89.34
92.83
95.68
97.45
98.24
98.31
97.85
96.54
93.46
86.99
74.83
59.38
41.42
21.91
1.91
-17.71
-36.57
-54.77
-72.84
-91.48
-111.36
-133.72
-159.13
-187.13
-215.78
-241.78
-261.02
-269.89
-266.61
-251.88
-229.18
-202.89
-176.80
-153.13
-132.36
-113.89
-97.07
-81.70
-68.01
-56.58
-47.38
-39.68
-32.46
-24.91
-16.83
-8.70
-1.39
4.43
8.48
11.20
13.42
15.97
19.20
22.84
26.23
28.63
29.70
29.58
28.83
28.15
27.95
28.17
28.33
27.91
26.55
24.37
21.80
19.45
17.90
17.45
18.15
19.86
22.23
24.85
27.24
29.02
29.97
30.11
29.64
28.78
27.71
26.50
25.18
23.77
22.35
21.01
19.80
18.74
17.77
16.90
16.14
15.50
14.86
14.02
12.74
10.91
8.68
6.38
4.41
3.04
2.28
1.89
1.56
1.08
0.38
-0.39
-1.08
-1.58
-1.91
-2.17
-2.48
-2.88
-3.31
-3.66
-3.81
-3.72
-3.47
-3.21
-3.10
-3.16
-3.19
-2.81
-1.64
0.52
3.50
6.79
9.72
11.74
12.66
12.61
11.97
11.09
10.19
9.31
8.44
7.60
6.90
6.47
6.35
6.45
6.61
6.65
6.44
5.96
5.26
4.37
3.36
2.27
1.18
0.17
-0.74
-1.53
-2.28
-3.04
-3.78
-4.41
-4.77
-4.76
-4.39
-3.80
-3.22
-2.86
-2.80
-3.04
-3.45
-3.95
-4.46
-4.95
-5.32
-5.41
-4.98
-3.82
-1.89
0.65
3.42
5.97
7.90
9.03
9.41
9.31
9.02
8.75
8.55
8.32
7.89
7.14
6.05
4.77
3.50
2.45
1.77
1.44
1.34
1.31
1.19
0.93
0.57
0.20
-0.11
-0.36
-0.67
-1.14
-1.81
-2.60
-3.31
-3.79
-4.02
-4.16
-4.48
-5.13
-6.08
-7.08
-7.80
-8.00
-7.65
-6.87
-5.87
-4.76
-3.58
-2.31
-0.99
0.25
1.21
1.75
1.80
1.46
0.90
0.29
-0.27
-0.74
-1.09
-1.28
-1.24
-0.90
-0.23
0.60
1.27
1.39
0.64
-1.08
-3.48
-6.00
-8.03
-9.21
-9.59
-9.65
-10.06
-11.43
-14.01
-17.58
-21.51
-24.93
-26.90
-26.72
-24.09
-19.29
-13.15
-6.85
-1.56
1.96
3.54
3.58
2.76
1.75
0.97
0.51
0.24
-0.06
-0.56
-1.27
-2.07
-2.73
-3.03
-2.80
-1.97
-0.62
1.14
3.14
5.20
7.08
8.47
9.09
8.79
7.71
6.26
4.94
4.19
4.12
4.55
5.16
5.67
6.01
6.29
6.73
7.48
8.57
9.91
11.34
12.66
13.73
14.48
14.88
15.00
14.93
14.75
14.47
14.06
13.50
12.82
12.13
11.65
11.51
11.75
12.28
12.91
13.48
13.86
13.97
13.74
13.04
11.78
9.94
7.66
5.20
2.88
0.98
-0.32
-1.02
-1.19
-0.99
-0.57
-0.11
0.32
0.69
1.04
1.43
1.90
2.39
2.75
2.84
2.58
2.02
1.25
0.42
-0.37
-1.08
-1.69
-2.20
-2.63
-3.03
-3.50
-4.12
-4.97
-5.97
-7.01
-7.90
-8.43
-8.47
-7.94
-6.84
-5.29
-3.52
-1.80
-0.43
0.44
0.85
0.96
0.93
0.82
0.58
0.10
-0.67
-1.64
-2.58
-3.26
-3.50
-3.31
-2.76
-1.96
-1.03
-0.09
0.65
1.01
0.81
0.06
-1.04
-2.11
-2.76
-2.76
-2.16
-1.26
-0.50
-0.30
-0.87
-2.17
-3.92
-5.69
-7.09
-7.90
-8.12
-7.95
-7.65
-7.48
-7.56
-7.84
-8.21
-8.49
-8.56
-8.30
-7.63
-6.50
-4.94
-3.10
-1.22
0.44
1.71
2.56
3.18
3.80
4.61
5.64
6.74
7.70
8.39
8.81
9.09
9.38
9.76
10.19
10.49
10.51
10.16
9.50
8.70
7.97
7.44
7.07
6.69
6.08
5.07
3.67
2.05
0.48
-0.77
-1.58
-1.98
-2.11
-2.14
-2.16
-2.20
-2.25
-2.27
-2.28
-2.24
-2.08
-1.69
-0.92
0.27
1.79
3.41
4.86
5.91
6.49
6.66
6.58
6.42
6.28
6.22
6.24
6.29
6.35
6.33
6.17
5.79
5.21
4.49
3.77
3.22
2.92
2.87
2.97
3.11
3.14
3.00
2.70
2.27
1.80
1.37
1.07
0.96
1.05
1.27
1.48
1.46
1.13
0.48
-0.32
-1.08
-1.65
-1.99
-2.19
-2.32
-2.36
-2.14
-1.44
-0.18
1.50
3.16
4.29
4.47
3.65
2.06
0.18
-1.54
-2.81
-3.57
-3.92
-3.99
-3.89
-3.70
-3.50
-3.39
-3.51
-3.89
-4.51
-5.20
-5.81
-6.24
-6.52
-6.79
-7.21
-7.78
-8.40
-8.84
-8.92
-8.60
-8.06
-7.59
-7.43
-7.64
-8.08
-8.49
-8.64
-8.50
-8.24
-8.10
-8.26
-8.71
-9.30
-9.83
-10.11
-10.07
-9.66
-8.79
-7.39
-5.47
-3.22
-1.05
0.56
1.28
1.12
0.53
0.25
0.96
3.00
6.16
9.75
12.85
14.62
14.60
12.82
9.75
6.15
2.72
0.03
-1.73
-2.59
-2.76
-2.44
-1.75
-0.70
0.65
2.15
3.52
4.42
4.64
4.23
3.47
2.74
2.30
2.15
2.03
1.62
0.75
-0.46
-1.67
-2.51
-2.83
-2.72
-2.50
-2.50
-2.88
-3.57
-4.33
-4.82
-4.75
-4.00
-2.63
-0.93
0.72
1.97
2.60
2.64
2.32
1.97
1.87
2.16
2.80
3.63
4.43
5.00
5.24
5.13
4.82
4.48
4.37
4.56
5.00
5.45
5.62
5.30
4.49
3.41
2.30
1.39
0.75
0.29
-0.11
-0.59
-1.16
-1.81
-2.44
-2.97
-3.38
-3.68
-3.94
-4.22
-4.60
-5.07
-5.62
-6.18
-6.71
-7.14
-7.44
-7.54
-7.40
-6.96
-6.15
-4.91
-3.24
-1.23
0.92
2.91
4.48
5.46
5.89
5.98
5.99
6.10
6.28
6.39
6.28
5.93
5.47
5.11
4.96
4.95
4.88
4.53
3.82
2.86
1.90
1.18
0.85
0.87
1.10
1.37
1.51
1.45
1.18
0.75
0.27
-0.16
-0.45
-0.59
-0.57
-0.47
-0.34
-0.18
0.03
0.37
0.93
1.78
2.92
4.27
5.72
7.20
8.65
10.04
11.35
12.57
13.66
14.62
15.46
16.19
16.75
17.04
16.92
16.36
15.45
14.43
13.59
13.04
12.72
12.38
11.80
10.98
10.20
9.87
10.38
11.84
13.99
16.27
17.86
17.87
15.50
10.24
2.03
-8.59
-20.59
-32.58
-43.24
-51.62
-57.42
-60.92
-62.81
-63.90
-64.84
-66.00
-67.45
-69.15
-70.96
-72.79
-74.49
-75.92
-76.86
-77.10
-76.49
-75.01
-72.74
-69.96
-67.01
-64.19
-61.67
-59.32
-56.66
-53.05
-47.97
-41.28
-33.43
-25.21
-17.36
-10.23
-3.57
3.14
10.22
17.35
23.56
27.70
29.15
28.23
26.16
24.44
24.19
25.65
28.22
30.95
33.13
34.55
35.48
36.33
37.29
38.35
39.41
40.48
41.78
43.59
45.98
48.71
51.36
53.58
55.30
56.74
58.19
59.73
61.09
61.85
61.79
61.18
60.81
61.56
63.92
67.67
72.06
76.23
79.66
82.42
84.97
87.88
91.52
95.99
101.18
106.92
112.89
118.61
123.34
126.16
126.28
123.34
117.68
110.27
102.34
94.95
88.54
82.74
76.47
68.39
57.41
43.22
26.46
8.54
-8.81
-24.06
-36.29
-45.34
-51.78
-56.54
-60.58
-64.54
-68.46
-71.98
-74.54
-75.87
-76.22
-76.27
-76.85
-78.48
-81.17
-84.49
-87.88
-90.98
-93.69
-96.05
-97.92
-98.91
-98.48
-96.33
-92.64
-88.07
-83.50
-79.59
-76.55
-74.06
-71.49
-68.36
-64.59
-60.61
-57.19
-55.03
-54.46
-55.25
-56.70
-57.93
-58.13
-56.74
-53.43
-48.17
-41.18
-33.02
-24.63
-17.06
-11.10
-6.89
-3.85
-0.91
2.92
8.09
14.36
21.03
27.29
32.50
36.24
38.09
37.55
34.08
27.34
17.57
5.68
-6.87
-18.56
-28.21
-35.36
-40.15
-43.15
-44.98
-46.09
-46.74
-47.10
-47.31
-47.49
-47.59
-47.28
-45.97
-43.06
-38.30
-31.99
-24.94
-18.16
-12.37
-7.82
-4.16
-0.68
3.38
8.57
15.09
22.74
30.95
39.04
46.31
52.39
57.29
61.37
65.12
68.81
72.31
75.10
76.64
76.69
75.63
74.48
74.70
77.77
84.72
95.45
108.26
119.69
125.17
120.30
102.52
72.37
33.66
-7.58
-45.20
-74.75
-94.67
-106.01
-111.24
-112.93
-112.82
-111.74
-110.18
-108.69
-107.90
-108.14
-108.94
-109.06
-106.90
-101.44
-92.72
-81.97
-70.98
-61.26
-53.40
-47.09
-41.50
-35.99
-30.43
-25.23
-21.03
-18.30
-17.11
-17.11
-17.60
-17.69
-16.46
-13.23
-7.75
-0.31
8.41
17.50
26.14
33.71
39.90
44.52
47.45
48.58
47.89
45.58
42.00
37.61
32.89
28.35
24.56
22.14
21.64
23.21
26.44
30.38
33.92
36.19
36.98
36.64
35.85
35.17
34.84
34.79
34.83
34.86
35.03
35.56
36.69
38.48
40.81
43.41
45.89
47.87
48.98
49.02
47.91
45.73
42.62
38.80
34.48
29.96
25.50
21.24
17.10
12.75
7.67
1.38
-6.26
-14.81
-23.22
-30.09
-34.13
-34.69
-32.08
-27.46
-22.50
-18.65
-16.70
-16.56
-17.48
-18.60
-19.25
-19.20
-18.48
-17.23
-15.53
-13.45
-11.13
-8.86
-6.97
-5.64
-4.85
-4.34
-3.80
-2.99
-1.90
-0.67
0.52
1.57
2.50
3.43
4.48
5.73
7.07
8.32
9.29
9.82
9.85
9.48
8.92
8.49
8.53
9.27
10.65
12.36
13.82
14.46
14.00
12.53
10.51
8.50
6.92
5.89
5.29
5.00
5.03
5.52
6.56
8.00
9.39
10.24
10.22
9.37
8.15
7.14
6.74
6.99
7.54
7.87
7.57
6.45
4.72
2.79
1.14
0.13
-0.09
0.35
1.11
1.76
1.91
1.31
-0.08
-2.12
-4.43
-6.38
-7.22
-6.36
-3.69
0.21
4.15
6.80
7.26
5.46
2.25
-1.08
-3.42
-4.27
-3.85
-2.76
-1.54
-0.34
0.97
2.64
4.66
6.71
8.29
8.98
8.71
7.83
6.94
6.67
7.29
8.69
10.33
11.58
11.99
11.48
10.35
9.13
8.27
7.94
7.98
7.94
7.40
6.13
4.17
1.78
-0.73
-3.07
-4.98
-6.20
-6.50
-5.76
-4.23
-2.53
-1.49
-1.84
-3.83
-7.02
-10.48
-13.19
-14.47
-14.20
-12.78
-10.79
-8.68
-6.66
-4.75
-2.97
-1.45
-0.49
-0.34
-1.09
-2.50
-4.05
-5.16
-5.39
-4.64
-3.23
-1.68
-0.59
-0.28
-0.76
-1.65
-2.39
-2.46
-1.68
-0.29
1.19
2.21
2.47
2.02
1.22
0.48
0.14
0.42
1.44
3.28
5.80
8.58
10.83
11.72
10.66
7.70
3.60
-0.56
-3.75
-5.54
-6.07
-5.86
-5.44
-5.09
-4.81
-4.46
-3.96
-3.33
-2.69
-2.13
-1.70
-1.37
-1.13
-0.92
-0.71
-0.51
-0.26
0.06
0.45
0.89
1.34
1.71
1.92
1.97
1.86
1.65
1.42
1.20
0.95
0.56
-0.07
-1.00
-2.16
-3.36
-4.40
-5.08
-5.25
-4.76
-3.42
-1.10
2.05
5.56
8.62
10.37
10.25
8.31
5.21
1.97
-0.47
-1.64
-1.54
-0.59
0.79
2.30
3.90
5.65
7.59
9.64
11.57
13.19
14.38
15.17
15.79
16.47
17.42
18.68
20.16
21.65
22.94
23.87
24.47
24.88
25.33
26.04
27.10
28.50
30.05
31.58
32.92
34.10
35.32
36.91
39.09
41.90
45.13
48.39
51.36
53.94
56.43
59.52
64.16
71.35
81.91
96.25
114.05
133.92
153.30
168.81
176.91
174.96
161.88
138.50
107.20
71.39
34.86
1.31
-26.10
-45.23
-55.56
-58.49
-57.04
-55.01
-55.53
-60.02
-67.95
-77.41
-86.25
-92.85
-96.41
-96.56
-93.15
-86.12
-75.90
-63.85
-52.15
-43.34
-39.40
-41.08
-47.72
-57.69
-68.99
-79.82
-88.76
-94.73
-96.97
-95.21
-89.86
-82.16
-73.91
-66.92
-62.43
-60.74
-61.31
-63.21
-65.61
-67.97
-70.02
-71.49
-71.91
-70.62
-67.07
-61.13
-53.29
-44.54
-36.02
-28.58
-22.56
-17.73
-13.62
-9.83
-6.21
-2.93
-0.29
1.52
2.57
3.15
3.64
4.28
5.07
5.84
6.33
6.39
6.02
5.34
4.53
3.78
3.24
3.03
3.17
3.56
3.97
4.09
3.66
2.52
0.67
-1.69
-4.21
-6.36
-7.61
-7.47
-5.73
-2.58
1.35
5.18
8.00
9.17
8.50
6.13
2.50
-1.88
-6.48
-10.75
-14.18
-16.40
-17.17
-16.50
-14.59
-11.68
-8.12
-4.23
-0.43
2.89
5.45
7.22
8.42
9.41
10.51
11.80
13.12
14.20
14.80
14.79
14.10
12.62
10.22
6.77
2.33
-2.77
-7.96
-12.59
-16.02
-17.78
-17.53
-15.19
-11.01
-5.64
-0.05
4.73
7.90
9.15
8.68
6.97
4.56
1.88
-0.80
-3.23
-5.23
-6.68
-7.57
-8.07
-8.36
-8.63
-8.88
-9.05
-9.02
-8.79
-8.43
-7.97
-7.41
-6.63
-5.46
-3.79
-1.63
0.84
3.35
5.60
7.35
8.48
8.95
8.81
8.23
7.51
7.13
7.66
9.51
12.71
16.73
20.58
23.15
23.72
22.25
19.46
16.36
13.84
12.29
11.53
11.13
10.70
10.15
9.66
9.36
9.22
8.96
8.19
6.65
4.33
1.50
-1.56
-4.68
-7.93
-11.44
-15.31
-19.37
-23.25
-26.45
-28.62
-29.63
-29.64
-28.99
-28.00
-26.92
-25.83
-24.64
-23.10
-20.87
-17.65
-13.37
-8.33
-3.19
1.18
4.13
5.45
5.46
4.86
4.35
4.34
4.92
5.94
7.23
8.74
10.47
12.37
14.26
15.82
16.79
17.10
16.94
16.62
16.47
16.70
17.29
18.06
18.76
19.08
18.79
17.70
15.73
12.96
9.59
5.92
2.22
-1.27
-4.33
-6.73
-8.10
-8.02
-6.20
-2.82
1.41
5.32
7.71
7.84
5.79
2.43
-0.94
-3.17
-3.68
-2.61
-0.54
1.83
4.10
6.25
8.47
10.94
13.60
16.22
18.50
20.29
21.72
23.16
25.01
27.47
30.40
33.29
35.45
36.23
35.24
32.52
28.43
23.60
18.62
13.97
9.96
6.75
4.41
2.90
1.92
0.94
-0.74
-3.68
-7.94
-12.98
-17.78
-21.24
-22.68
-22.09
-20.03
-17.30
-14.59
-12.27
-10.46
-9.12
-8.27
-7.99
-8.27
-9.04
-10.09
-11.17
-12.11
-12.85
-13.47
-14.11
-14.82
-15.59
-16.29
-16.79
-17.01
-17.07
-17.15
-17.46
-18.09
-18.92
-19.72
-20.11
-19.77
-18.53
-16.47
-14.08
-12.09
-11.28
-12.14
-14.59
-17.96
-21.23
-23.49
-24.29
-23.76
-22.39
-20.64
-18.64
-16.22
-13.13
-9.32
-5.08
-0.91
2.78
5.89
8.70
11.62
14.93
18.54
21.99
24.70
26.19
26.32
25.24
23.30
20.84
18.12
15.29
12.44
9.66
7.03
4.63
2.53
0.79
-0.54
-1.35
-1.47
-0.75
0.95
3.55
6.75
9.99
12.63
14.19
14.57
14.07
13.26
12.72
12.78
13.48
14.65
16.15
17.92
19.93
22.06
24.05
25.50
26.09
25.68
24.35
22.35
19.93
17.30
14.63
12.06
9.70
7.58
5.68
3.92
2.29
0.88
-0.06
-0.33
0.11
1.06
2.13
2.98
3.38
3.37
3.22
3.22
3.59
4.41
5.59
6.93
8.11
8.75
8.47
7.03
4.44
1.03
-2.60
-5.74
-7.80
-8.50
-7.95
-6.53
-4.74
-2.98
-1.46
-0.26
0.67
1.33
1.73
1.86
1.75
1.45
1.01
0.39
-0.50
-1.72
-3.20
-4.71
-5.94
-6.64
-6.79
-6.61
-6.39
-6.43
-6.81
-7.49
-8.30
-9.01
-9.38
-9.25
-8.53
-7.36
-6.10
-5.32
-5.55
-7.11
-9.86
-13.32
-16.75
-19.44
-20.87
-20.91
-19.68
-17.51
-14.76
-11.74
-8.61
-5.46
-2.32
0.71
3.43
5.59
7.03
7.74
7.89
7.80
7.73
7.87
8.22
8.65
9.00
9.15
9.03
8.73
8.39
8.17
8.18
8.45
8.96
9.64
10.40
11.12
11.57
11.39
10.25
7.93
4.53
0.53
-3.39
-6.55
-8.57
-9.41
-9.36
-8.79
-7.98
-7.01
-5.89
-4.61
-3.26
-2.01
-1.02
-0.41
-0.15
-0.14
-0.27
-0.42
-0.52
-0.48
-0.23
0.31
1.17
2.27
3.41
4.36
4.90
4.96
4.64
4.23
4.06
4.46
5.62
7.54
10.02
12.61
14.70
15.72
15.26
13.29
10.17
6.57
3.18
0.51
-1.25
-2.19
-2.56
-2.56
-2.32
-1.86
-1.19
-0.41
0.35
0.91
1.12
0.94
0.45
-0.16
-0.70
-1.06
-1.24
-1.38
-1.63
-2.07
-2.59
-2.93
-2.80
-2.06
-0.84
0.54
1.64
2.15
2.00
1.36
0.61
0.13
0.30
1.32
3.20
5.68
8.18
10.01
10.46
9.21
6.42
2.71
-1.02
-4.01
-5.84
-6.55
-6.43
-5.87
-5.12
-4.28
-3.33
-2.28
-1.20
-0.21
0.60
1.22
1.71
2.18
2.69
3.18
3.56
3.69
3.50
3.12
2.79
2.78
3.32
4.37
5.70
6.95
7.82
8.13
7.93
7.44
6.90
6.57
6.62
7.19
8.38
10.21
12.55
15.09
17.35
18.77
18.92
17.60
14.97
11.49
7.83
4.61
2.25
0.85
0.26
0.20
0.46
0.99
1.88
3.19
4.82
6.53
7.95
8.81
9.01
8.63
7.89
6.99
6.11
5.36
4.86
4.68
4.84
5.23
5.73
6.18
6.56
6.92
7.39
8.07
8.98
10.05
11.15
12.13
12.84
13.16
13.05
12.58
11.99
11.69
12.07
13.35
15.41
17.66
19.25
19.31
17.34
13.36
7.91
1.80
-4.21
-9.63
-14.32
-18.33
-21.66
-24.24
-25.85
-26.34
-25.70
-24.11
-21.89
-19.39
-16.89
-14.54
-12.36
-10.32
-8.35
-6.47
-4.73
-3.27
-2.27
-1.84
-2.03
-2.71
-3.67
-4.61
-5.34
-5.76
-5.90
-5.88
-5.84
-5.86
-5.99
-6.26
-6.71
-7.41
-8.48
-9.92
-11.58
-13.05
-13.73
-13.00
-10.58
-6.70
-2.18
1.87
4.43
5.02
3.88
1.79
-0.31
-1.67
-1.99
-1.32
0.08
1.99
4.22
6.63
9.03
11.24
13.08
14.49
15.55
16.35
17.03
17.63
18.14
18.49
18.53
18.06
16.88
14.89
12.10
8.73
5.08
1.45
-1.94
-5.06
-7.94
-10.57
-12.92
-14.90
-16.47
-17.69
-18.69
-19.64
-20.59
-21.50
-22.25
-22.71
-22.69
-21.96
-20.26
-17.49
-13.87
-9.97
-6.67
-4.71
-4.37
-5.33
-6.78
-7.86
-8.12
-7.66
-6.97
-6.55
-6.59
-6.93
-7.21
-7.15
-6.78
-6.36
-6.24
-6.61
-7.44
-8.45
-9.32
-9.80
-9.85
-9.58
-9.17
-8.82
-8.62
-8.57
-8.70
-8.95
-9.34
-9.83
-10.39
-10.98
-11.52
-11.99
-12.36
-12.63
-12.72
-12.62
-12.33
-11.88
-11.43
-11.05
-10.64
-9.85
-8.18
-5.25
-1.08
3.76
8.25
11.31
12.25
11.00
8.11
4.39
0.59
-2.94
-6.26
-9.56
-12.95
-16.28
-19.11
-21.00
-21.68
-21.31
-20.39
-19.54
-19.23
-19.60
-20.43
-21.32
-21.95
-22.19
-22.19
-22.19
-22.32
-22.53
-22.60
-22.31
-21.60
-20.70
-20.00
-19.95
-20.84
-22.72
-25.36
-28.43
-31.53
-34.30
-36.35
-37.29
-36.77
-34.70
-31.45
-27.87
-25.00
-23.68
-24.08
-25.55
-26.93
-27.02
-25.11
-21.22
-15.97
-10.21
-4.61
0.48
5.03
9.15
12.91
16.26
19.11
21.40
23.21
24.77
26.40
28.40
30.90
33.81
36.82
39.49
41.42
42.41
42.53
42.08
41.49
41.07
40.94
40.95
40.77
40.13
38.97
37.51
36.18
35.45
35.62
36.69
38.37
40.18
41.59
42.12
41.50
39.63
36.64
32.91
28.96
25.41
22.81
21.52
21.62
23.00
25.37
28.39
31.70
34.97
37.96
40.54
42.72
44.58
46.22
47.73
49.05
50.06
50.68
50.96
51.17
51.67
52.87
55.03
58.11
61.78
65.36
68.06
69.08
67.87
64.20
58.28
50.64
42.02
33.12
24.38
15.74
6.70
-3.49
-15.32
-28.58
-42.32
-55.05
-65.36
-72.47
-76.54
-78.42
-79.11
-79.27
-79.01
-78.09
-76.27
-73.57
-70.26
-66.60
-62.66
-58.28
-53.27
-47.67
-41.96
-36.89
-33.22
-31.41
-31.35
-32.45
-33.82
-34.69
-34.69
-33.90
-32.76
-31.74
-31.15
-30.98
-30.97
-30.70
-29.75
-27.70
-24.21
-19.20
-12.98
-6.28
-0.17
4.35
6.70
6.99
5.90
4.40
3.23
2.77
2.96
3.62
4.62
6.01
7.94
10.52
13.67
17.22
20.89
24.45
27.74
30.66
33.06
34.72
35.33
34.59
32.30
28.52
23.53
17.77
11.76
5.97
0.80
-3.52
-6.86
-9.24
-10.73
-11.39
-11.13
-9.70
-6.83
-2.54
2.57
7.36
10.40
10.60
7.68
2.36
-3.98
-9.79
-14.06
-16.46
-17.26
-16.95
-15.90
-14.30
-12.23
-9.89
-7.66
-5.97
-5.07
-4.94
-5.28
-5.69
-5.98
-6.29
-7.01
-8.56
-11.13
-14.62
-18.68
-22.94
-27.17
-31.43
-35.88
-40.70
-45.95
-51.61
-57.53
-63.51
-69.14
-73.60
-75.82
-74.71
-69.71
-61.24
-50.72
-40.09
-31.10
-24.66
-20.59
-17.99
-15.80
-13.39
-10.70
-8.13
-6.12
-4.95
-4.58
-4.81
-5.30
-5.66
-5.39
-3.94
-0.73
4.56
11.94
20.97
30.80
40.35
48.46
54.17
56.86
56.39
53.14
47.91
41.70
35.51
30.06
25.70
22.49
20.23
18.74
17.92
17.70
17.91
18.20
18.06
17.00
14.90
12.18
9.76
8.71
9.84
13.26
18.39
24.16
29.49
33.59
36.20
37.36
37.28
36.11
33.89
30.69
26.69
22.30
18.06
14.55
12.07
10.61
9.78
9.11
8.19
6.98
5.79
5.06
5.13
5.93
7.06
7.94
8.08
7.36
6.01
4.47
3.20
2.55
2.73
3.88
5.92
8.47
10.85
12.14
11.55
8.75
4.05
-1.66
-7.30
-11.98
-15.30
-17.34
-18.37
-18.63
-18.16
-16.87
-14.81
-12.26
-9.73
-7.74
-6.57
-6.17
-6.19
-6.17
-5.84
-5.13
-4.26
-3.51
-3.11
-3.15
-3.54
-4.02
-4.29
-4.10
-3.32
-2.04
-0.55
0.75
1.49
1.50
0.95
0.22
-0.13
0.38
1.95
4.47
7.46
10.18
11.79
11.58
9.22
4.96
-0.42
-5.77
-9.99
-12.45
-13.12
-12.55
-11.47
-10.39
-9.43
-8.35
-6.89
-5.07
-3.19
-1.70
-0.92
-0.82
-1.05
-1.18
-0.91
-0.23
0.67
1.56
2.33
3.00
3.71
4.54
5.49
6.49
7.45
8.29
8.91
9.22
9.10
8.44
7.28
5.79
4.33
3.43
3.57
5.08
7.95
11.68
15.36
17.85
18.16
15.78
10.96
4.57
-2.15
-8.01
-12.26
-14.68
-15.50
-15.13
-14.01
-12.52
-10.97
-9.65
-8.73
-8.28
-8.12
-7.95
-7.46
-6.50
-5.18
-3.81
-2.77
-2.31
-2.44
-2.94
-3.53
-3.96
-4.12
-4.01
-3.74
-3.38
-2.96
-2.51
-2.08
-1.71
-1.46
-1.35
-1.30
-1.15
-0.82
-0.28
0.35
0.92
1.33
1.63
2.07
3.00
4.67
7.01
9.53
11.35
11.57
9.60
5.51
0.05
-5.65
-10.48
-13.79
-15.53
-16.08
-15.92
-15.33
-14.35
-12.86
-10.90
-8.68
-6.63
-5.09
-4.21
-3.87
-3.70
-3.36
-2.65
-1.64
-0.55
0.35
0.87
0.95
0.71
0.30
-0.07
-0.22
-0.04
0.45
1.19
2.04
2.88
3.66
4.35
4.93
5.37
5.61
5.60
5.39
5.06
4.71
4.41
4.22
4.20
4.40
4.91
5.73
6.78
7.91
9.02
10.14
11.48
13.29
15.66
18.38
20.88
22.35
22.07
19.65
15.29
9.60
3.57
-1.86
-5.96
-8.46
-9.47
-9.43
-8.82
-8.05
-7.37
-6.85
-6.45
-6.05
-5.61
-5.10
-4.58
-4.18
-3.97
-4.06
-4.41
-4.92
-5.47
-5.95
-6.35
-6.70
-7.07
-7.47
-7.85
-8.13
-8.28
-8.30
-8.26
-8.21
-8.21
-8.27
-8.40
-8.59
-8.84
-9.11
-9.28
-9.26
-8.98
-8.53
-8.14
-8.03
-8.39
-9.15
-10.09
-10.85
-11.12
-10.65
-9.38
-7.43
-5.14
-3.04
-1.68
-1.51
-2.57
-4.49
-6.48
-7.67
-7.39
-5.43
-2.13
1.85
5.71
8.91
11.19
12.64
13.46
13.87
13.99
13.87
13.58
13.21
12.92
12.78
12.75
12.62
12.17
11.27
10.00
8.63
7.44
6.59
6.08
5.74
5.43
5.09
4.74
4.47
4.27
4.08
3.80
3.36
2.77
2.09
1.44
0.90
0.54
0.42
0.52
0.78
1.12
1.43
1.73
2.14
2.89
4.18
6.11
8.63
11.43
14.10
16.12
17.04
16.60
14.86
12.20
9.21
6.56
4.73
3.97
4.21
5.26
6.89
8.89
11.10
13.34
15.40
17.15
18.49
19.48
20.19
20.73
21.13
21.34
21.27
20.82
19.94
18.61
16.89
14.91
12.82
10.81
9.02
7.45
5.99
4.36
2.27
-0.48
-3.89
-7.71
-11.56
-15.01
-17.70
-19.33
-19.75
-18.87
-16.72
-13.49
-9.50
-5.20
-1.05
2.61
5.67
8.21
10.45
12.47
14.10
14.88
14.23
11.73
7.28
1.32
-5.34
-11.70
-16.91
-20.49
-22.38
-22.85
-22.30
-21.12
-19.57
-17.84
-16.10
-14.48
-13.11
-12.03
-11.16
-10.31
-9.32
-8.08
-6.70
-5.41
-4.49
-4.11
-4.24
-4.64
-4.96
-4.96
-4.58
-4.05
-3.75
-4.09
-5.26
-7.09
-9.18
-10.97
-12.07
-12.37
-12.09
-11.63
-11.33
-11.35
-11.59
-11.85
-11.93
-11.78
-11.37
-10.66
-9.50
-7.77
-5.59
-3.38
-1.83
-1.63
-3.11
-6.06
-9.80
-13.47
-16.35
-18.14
-18.86
-18.69
-17.80
-16.24
-14.05
-11.40
-8.64
-6.21
-4.45
-3.46
-3.12
-3.13
-3.25
-3.37
-3.54
-3.83
-4.31
-4.90
-5.53
-6.11
-6.68
-7.32
-8.12
-9.11
-10.20
-11.23
-11.99
-12.23
-11.73
-10.35
-8.07
-5.11
-1.85
1.25
3.78
5.50
6.39
6.57
6.31
5.91
5.69
5.97
6.87
8.31
9.92
11.17
11.58
10.93
9.39
7.43
5.64
4.51
4.36
5.26
7.11
9.69
12.67
15.62
18.09
19.79
20.65
20.85
20.75
20.63
20.65
20.76
20.79
20.55
19.96
19.04
17.95
16.92
16.23
16.05
16.43
17.26
18.35
19.48
20.52
21.44
22.32
23.25
24.32
25.56
26.95
28.29
29.24
29.30
27.96
24.88
20.16
14.30
8.15
2.59
-1.73
-4.61
-6.33
-7.48
-8.72
-10.57
-13.23
-16.52
-19.98
-23.02
-25.06
-25.75
-24.97
-22.87
-19.72
-15.88
-11.68
-7.40
-3.31
0.34
3.30
5.38
6.45
6.49
5.59
3.91
1.64
-1.09
-4.20
-7.66
-11.42
-15.28
-18.90
-21.92
-24.08
-25.40
-26.11
-26.59
-27.16
-27.92
-28.80
-29.55
-29.95
-29.81
-29.03
-27.60
-25.61
-23.23
-20.73
-18.41
-16.42
-14.68
-12.89
-10.66
-7.85
-4.75
-2.04
-0.55
-0.92
-3.21
-6.90
-11.05
-14.67
-17.03
-17.88
-17.30
-15.59
-13.01
-9.79
-6.13
-2.34
1.21
4.13
6.14
7.24
7.66
7.85
8.23
9.06
10.31
11.71
12.91
13.65
13.84
13.60
13.16
12.72
12.34
12.03
11.73
11.40
11.05
10.67
10.29
9.93
9.57
9.21
8.81
8.33
7.76
7.19
6.76
6.65
7.02
7.92
9.31
10.98
12.61
13.85
14.37
13.99
12.74
10.92
9.01
7.53
6.80
6.86
7.50
8.39
9.34
10.28
11.27
12.36
13.48
14.46
15.07
15.19
14.80
13.99
13.00
12.06
11.40
11.20
11.50
12.13
12.68
12.59
11.27
8.42
4.10
-1.22
-6.84
-12.08
-16.43
-19.71
-21.98
-23.45
-24.37
-24.91
-25.14
-25.00
-24.38
-23.16
-21.28
-18.82
-16.06
-13.42
-11.42
-10.46
-10.75
-12.20
-14.38
-16.66
-18.38
-18.96
-18.13
-15.89
-12.55
-8.54
-4.35
-0.40
2.95
5.45
6.96
7.48
7.15
6.24
5.06
3.87
2.82
1.93
1.09
0.17
-0.93
-2.26
-3.74
-5.23
-6.50
-7.38
-7.75
-7.66
-7.29
-6.87
-6.57
-6.40
-6.28
-5.99
-5.40
-4.41
-3.01
-1.23
0.82
3.00
5.02
6.58
7.46
7.68
7.47
7.20
7.20
7.64
8.43
9.39
10.33
11.17
11.92
12.65
13.38
14.08
14.66
14.98
14.92
14.37
13.34
11.92
10.37
8.96
7.94
7.41
7.24
7.25
7.21
7.02
6.71
6.38
6.14
6.01
5.87
5.54
4.87
3.85
2.57
1.25
0.08
-0.80
-1.36
-1.62
-1.54
-1.06
-0.11
1.23
2.67
3.74
3.99
3.17
1.34
-1.10
-3.66
-5.87
-7.44
-8.28
-8.44
-8.04
-7.15
-5.90
-4.38
-2.77
-1.25
-0.01
0.79
1.10
1.00
0.65
0.25
-0.02
-0.13
-0.16
-0.28
-0.63
-1.21
-1.91
-2.55
-2.94
-2.99
-2.73
-2.25
-1.69
-1.19
-0.85
-0.72
-0.83
-1.12
-1.45
-1.67
-1.64
-1.28
-0.64
0.12
0.77
1.02
0.64
-0.46
-2.20
-4.26
-6.20
-7.61
-8.29
-8.25
-7.71
-6.96
-6.18
-5.42
-4.57
-3.53
-2.29
-0.93
0.37
1.45
2.24
2.73
2.95
2.96
2.83
2.63
2.45
2.39
2.45
2.55
2.56
2.40
2.07
1.66
1.33
1.18
1.19
1.23
1.21
1.03
0.73
0.40
0.08
-0.18
-0.38
-0.43
-0.22
0.37
1.30
2.34
3.10
3.22
2.52
1.10
-0.69
-2.36
-3.49
-3.84
-3.40
-2.36
-1.04
0.31
1.45
2.34
2.98
3.44
3.76
3.93
3.95
3.78
3.45
3.04
2.65
2.39
2.32
2.40
2.55
2.65
2.61
2.40
2.10
1.81
1.65
1.67
1.80
1.91
1.89
1.72
1.47
1.24
1.05
0.82
0.39
-0.31
-1.25
-2.21
-2.91
-3.11
-2.72
-1.83
-0.68
0.38
1.03
1.00
0.20
-1.19
-2.87
-4.42
-5.49
-5.88
-5.62
-4.82
-3.66
-2.33
-0.95
0.34
1.45
2.31
2.91
3.28
3.46
3.45
3.26
2.94
2.60
2.33
2.17
2.00
1.66
1.05
0.25
-0.50
-0.88
-0.74
-0.17
0.55
1.11
1.34
1.28
1.06
0.84
0.65
0.43
0.09
-0.39
-0.97
-1.53
-1.92
-2.06
-1.89
-1.42
-0.76
-0.09
0.34
0.30
-0.33
-1.48
-2.88
-4.15
-4.97
-5.11
-4.55
-3.44
-2.02
-0.53
0.86
2.06
3.06
3.87
4.49
4.89
5.03
4.85
4.39
3.70
2.94
2.26
1.77
1.54
1.58
1.84
2.23
2.63
2.92
3.03
2.96
2.74
2.44
2.09
1.68
1.17
0.58
-0.04
-0.52
-0.71
-0.55
-0.11
0.43
0.81
0.88
0.58
0.01
-0.64
-1.11
-1.20
-0.77
0.09
1.12
1.90
2.04
1.24
-0.48
-2.83
-5.32
-7.38
-8.60
-8.84
-8.20
-6.98
-5.51
-4.04
-2.74
-1.65
-0.72
0.05
0.65
1.02
1.14
0.98
0.66
0.36
0.26
0.51
1.09
1.89
2.70
3.34
3.72
3.86
3.84
3.75
3.65
3.51
3.31
2.99
2.58
2.12
1.69
1.38
1.28
1.39
1.66
1.93
1.99
1.69
1.00
0.01
-1.03
-1.87
-2.27
-2.13
-1.42
-0.24
1.21
2.63
3.66
3.93
3.21
1.55
-0.73
-3.08
-4.92
-5.86
-5.84
-5.06
-3.86
-2.53
-1.22
0.02
1.22
2.31
3.13
3.52
3.46
3.04
2.53
2.17
2.07
2.12
2.09
1.77
1.07
0.15
-0.73
-1.23
-1.16
-0.51
0.53
1.67
2.61
3.14
3.22
2.94
2.45
1.89
1.35
0.86
0.45
0.14
-0.03
-0.12
-0.23
-0.52
-1.00
-1.58
-1.97
-1.80
-0.84
0.85
2.92
4.78
5.82
5.65
4.25
1.94
-0.68
-3.01
-4.61
-5.35
-5.36
-4.94
-4.36
-3.75
-3.06
-2.20
-1.12
0.11
1.28
2.23
2.85
3.17
3.33
3.45
3.59
3.74
3.88
4.02
4.13
4.20
4.17
3.99
3.67
3.34
3.15
3.21
3.46
3.70
3.69
3.30
2.59
1.85
1.36
1.34
1.81
2.62
3.50
4.18
4.45
4.25
3.67
2.92
2.26
1.93
2.07
2.68
3.65
4.77
5.76
6.26
5.92
4.52
2.07
-1.07
-4.33
-7.07
-8.87
-9.64
-9.61
-9.11
-8.38
-7.51
-6.48
-5.23
-3.87
-2.55
-1.51
-0.90
-0.72
-0.81
-0.96
-1.03
-0.98
-0.90
-0.95
-1.20
-1.59
-1.92
-1.97
-1.66
-1.06
-0.38
0.15
0.43
0.49
0.42
0.29
0.13
-0.10
-0.40
-0.70
-0.93
-1.01
-0.96
-0.89
-0.89
-1.05
-1.33
-1.66
-1.90
-1.89
-1.43
-0.39
1.26
3.30
5.27
6.54
6.56
5.09
2.36
-1.09
-4.50
-7.24
-8.96
-9.64
-9.44
-8.61
-7.39
-5.95
-4.42
-2.94
-1.60
-0.49
0.38
1.02
1.43
1.64
1.66
1.51
1.21
0.80
0.29
-0.33
-1.02
-1.70
-2.25
-2.55
-2.52
-2.18
-1.65
-1.09
-0.63
-0.33
-0.20
-0.19
-0.28
-0.46
-0.72
-1.02
-1.31
-1.48
-1.48
-1.30
-0.97
-0.59
-0.29
-0.18
-0.30
-0.60
-0.88
-0.84
-0.20
1.18
3.22
5.51
7.48
8.51
8.17
6.42
3.58
0.25
-2.89
-5.32
-6.76
-7.16
-6.66
-5.52
-4.01
-2.34
-0.75
0.56
1.46
1.86
1.79
1.38
0.82
0.30
0.00
-0.01
0.25
0.67
1.09
1.39
1.51
1.53
1.58
1.77
2.15
2.64
3.14
3.52
3.70
3.69
3.53
3.24
2.85
2.37
1.86
1.40
1.04
0.78
0.54
0.26
-0.05
-0.31
-0.39
-0.20
0.28
1.03
2.00
3.17
4.46
5.62
6.26
5.84
4.02
0.78
-3.45
-7.93
-11.86
-14.65
-16.06
-16.15
-15.21
-13.57
-11.57
-9.47
-7.48
-5.75
-4.42
-3.57
-3.19
-3.19
-3.40
-3.61
-3.67
-3.53
-3.32
-3.22
-3.36
-3.70
-4.09
-4.23
-3.95
-3.26
-2.35
-1.52
-1.01
-0.92
-1.19
-1.67
-2.15
-2.45
-2.51
-2.39
-2.25
-2.24
-2.51
-3.02
-3.67
-4.27
-4.63
-4.62
-4.20
-3.35
-2.09
-0.56
0.98
2.11
2.37
1.47
-0.52
-3.19
-5.91
-8.07
-9.28
-9.50
-8.92
-7.82
-6.44
-4.92
-3.31
-1.62
0.08
1.73
3.30
4.84
6.44
8.25
10.28
12.43
14.43
15.96
16.87
17.24
17.41
17.87
18.99
20.83
23.15
25.54
27.58
29.15
30.42
31.75
33.49
35.78
38.51
41.40
44.17
46.70
49.03
51.34
53.78
56.44
59.33
62.39
65.54
68.66
71.58
74.06
75.77
76.52
76.29
75.39
74.23
73.12
71.86
69.80
66.09
60.13
52.07
42.89
34.01
26.70
21.51
18.08
15.56
13.09
10.30
7.38
4.76
2.74
1.29
0.18
-0.77
-1.46
-1.53
-0.62
1.39
4.24
7.45
10.52
13.17
15.51
17.84
20.58
23.97
28.00
32.28
36.07
38.40
38.15
34.36
26.46
14.58
-0.39
-16.83
-32.87
-46.90
-58.09
-66.61
-73.40
-79.57
-85.77
-91.81
-96.77
-99.41
-98.79
-94.59
-87.10
-77.04
-65.21
-52.34
-39.00
-25.58
-12.28
0.88
14.02
27.21
40.23
52.48
62.98
70.74
74.96
75.34
72.12
65.96
57.75
48.47
39.08
30.39
22.90
16.70
11.45
6.49
1.14
-5.00
-11.97
-19.54
-27.45
-35.69
-44.61
-54.76
-66.57
-80.01
-94.50
-109.09
-122.87
-135.24
-146.10
-155.61
-163.96
-171.07
-176.64
-180.27
-181.76
-181.32
-179.57
-177.25
-175.00
-173.12
-171.49
-169.67
-167.13
-163.39
-158.04
-150.81
-141.56
-130.32
-117.24
-102.58
-86.53
-69.12
-50.30
-30.12
-9.05
11.88
31.17
47.27
59.13
66.50
69.93
70.41
68.82
65.56
60.51
53.32
43.86
32.61
20.86
10.60
4.00
2.79
7.75
18.55
33.93
52.26
72.21
93.09
114.84
137.74
161.99
187.27
212.50
235.70
254.05
264.25
263.31
249.44
222.86
186.08
143.29
99.28
58.13
22.47
-6.61
-29.10
-45.41
-56.01
-61.36
-62.21
-59.89
-56.36
-54.02
-55.03
-60.68
-70.79
-83.62
-96.36
-105.97
-110.09
-107.56
-98.57
-84.31
-66.57
-47.47
-29.27
-14.21
-4.20
-0.35
-2.65
-9.97
-20.43
-31.88
-42.44
-50.70
-55.78
-57.42
-55.86
-51.86
-46.53
-41.09
-36.53
-33.35
-31.45
-30.25
-29.02
-27.17
-24.53
-21.32
-18.06
-15.26
-13.22
-11.95
-11.21
-10.76
-10.48
-10.31
-10.16
-9.81
-8.92
-7.34
-5.23
-3.20
-1.95
-1.98
-3.31
-5.49
-7.94
-10.25
-12.37
-14.45
-16.60
-18.69
-20.39
-21.48
-22.02
-22.35
-22.86
-23.53
-23.74
-22.40
-18.37
-11.00
-0.50
12.09
25.32
37.75
48.47
57.14
63.81
68.67
71.79
73.14
72.64
70.40
66.80
62.37
57.68
53.17
49.09
45.58
42.64
40.10
37.60
34.58
30.43
24.83
17.88
10.18
2.66
-3.78
-8.60
-11.63
-13.12
-13.40
-12.80
-11.54
-9.87
-8.06
-6.50
-5.54
-5.36
-5.91
-6.87
-7.82
-8.33
-8.20
-7.59
-6.96
-6.93
-7.98
-10.18
-13.13
-16.09
-18.33
-19.47
-19.62
-19.26
-19.00
-19.24
-20.08
-21.32
-22.59
-23.49
-23.69
-22.90
-20.89
-17.51
-12.83
-7.32
-1.79
2.74
5.37
5.67
3.86
0.63
-3.11
-6.69
-9.83
-12.65
-15.38
-18.12
-20.78
-23.11
-24.94
-26.32
-27.52
-28.93
-30.83
-33.37
-36.46
-39.96
-43.64
-47.41
-51.25
-55.29
-59.66
-64.49
-69.72
-75.10
-80.27
-84.80
-88.41
-91.01
-92.65
-93.48
-93.54
-92.62
-90.13
-85.13
-76.56
-63.62
-46.20
-25.07
-1.70
22.35
46.05
69.10
91.62
113.64
134.62
153.70
170.28
184.74
198.36
212.72
228.47
244.66
259.01
269.02
273.21
271.59
264.93
253.66
237.03
213.47
181.90
143.04
99.91
57.03
18.80
-12.00
-34.89
-51.11
-62.58
-70.89
-76.92
-81.01
-83.49
-84.85
-85.75
-86.69
-87.85
-89.01
-89.71
-89.44
-87.85
-84.84
-80.58
-75.43
-69.85
-64.25
-58.86
-53.68
-48.59
-43.54
-38.72
-34.65
-31.91
-30.78
-30.99
-31.69
-31.77
-30.36
-27.16
-22.56
-17.25
-11.88
-6.75
-1.81
3.11
8.04
12.72
16.73
19.65
21.30
21.75
21.32
20.43
19.56
19.04
19.07
19.64
20.54
21.48
22.19
22.55
22.56
22.35
22.04
21.71
21.41
21.10
20.79
20.49
20.20
19.89
19.58
19.27
19.06
19.09
19.58
20.67
22.32
24.12
25.30
24.78
21.58
15.27
6.24
-4.30
-14.69
-23.42
-29.61
-33.17
-34.57
-34.49
-33.42
-31.67
-29.35
-26.68
-24.01
-21.75
-20.23
-19.57
-19.61
-20.01
-20.35
-20.29
-19.69
-18.66
-17.52
-16.66
-16.38
-16.65
-17.20
-17.58
-17.37
-16.45
-14.96
-13.29
-11.85
-10.92
-10.51
-10.43
-10.35
-9.94
-8.97
-7.31
-5.02
-2.26
0.69
3.51
5.86
7.41
7.97
7.46
6.03
4.04
2.04
0.62
0.30
1.36
3.74
7.13
11.00
14.84
18.22
20.89
22.81
24.08
24.85
25.30
25.56
25.72
25.81
25.83
25.74
25.47
25.03
24.46
23.85
23.32
22.99
22.94
23.24
23.87
24.71
25.59
26.29
26.61
26.49
25.98
25.30
24.76
24.65
25.19
26.49
28.47
30.85
33.09
34.40
33.90
30.89
25.15
17.17
8.04
-0.87
-8.34
-13.71
-17.01
-18.76
-19.65
-20.22
-20.69
-21.01
-21.09
-20.93
-20.66
-20.53
-20.70
-21.16
-21.70
-21.99
-21.79
-21.05
-19.96
-18.85
-18.02
-17.59
-17.46
-17.38
-17.12
-16.60
-16.00
-15.65
-15.91
-16.92
-18.54
-20.31
-21.70
-22.16
-21.43
-19.52
-16.77
-13.61
-10.51
-7.87
-5.93
-4.74
-4.17
-3.91
-3.55
-2.71
-1.19
0.94
3.41
5.84
8.04
9.94
11.66
13.22
14.45
15.02
14.67
13.34
11.37
9.32
7.72
6.86
6.68
6.82
6.89
6.66
6.13
5.50
5.03
4.90
5.13
5.60
6.02
6.17
5.95
5.42
4.80
4.24
3.81
3.51
3.35
3.45
4.02
5.10
6.43
7.40
7.31
5.71
2.67
-1.24
-5.26
-8.70
-11.23
-12.85
-13.63
-13.61
-12.79
-11.22
-9.15
-7.02
-5.30
-4.36
-4.29
-4.89
-5.82
-6.70
-7.24
-7.36
-7.17
-6.91
-6.83
-7.05
-7.48
-7.90
-8.08
-7.91
-7.51
-7.06
-6.73
-6.55
-6.43
-6.25
-5.91
-5.39
-4.71
-3.84
-2.75
-1.50
-0.21
0.86
1.39
1.18
0.15
-1.51
-3.44
-5.15
-6.19
-6.29
-5.44
-3.93
-2.23
-0.72
0.40
1.22
2.01
3.02
4.32
5.75
6.98
7.73
7.84
7.34
6.37
5.14
3.86
2.74
1.89
1.36
1.09
0.95
0.81
0.59
0.29
-0.07
-0.46
-0.91
-1.41
-1.88
-2.19
-2.16
-1.71
-0.93
-0.13
0.37
0.31
-0.35
-1.43
-2.63
-3.62
-4.19
-4.31
-4.10
-3.67
-3.13
-2.46
-1.61
-0.50
0.80
2.11
3.19
3.83
4.04
3.91
3.71
3.59
3.58
3.60
3.52
3.27
2.93
2.63
2.49
2.52
2.68
2.81
2.77
2.50
2.02
1.47
1.09
1.16
1.83
3.07
4.53
5.63
5.83
4.78
2.50
-0.60
-3.89
-6.75
-8.73
-9.66
-9.55
-8.58
-7.01
-5.14
-3.23
-1.44
0.13
1.48
2.59
3.44
3.94
4.08
3.89
3.50
3.06
2.62
2.19
1.76
1.35
1.04
0.97
1.16
1.55
1.96
2.24
2.32
2.26
2.18
2.25
2.55
3.17
4.10
5.26
6.41
7.22
7.31
6.43
4.64
2.24
-0.23
-2.25
-3.45
-3.71
-3.13
-1.86
-0.09
2.08
4.51
7.07
9.51
11.60
13.05
13.66
13.35
12.17
10.30
7.98
5.50
3.04
0.79
-1.15
-2.65
-3.58
-3.86
-3.51
-2.76
-2.00
-1.62
-1.93
-2.98
-4.52
-6.14
-7.37
-7.87
-7.50
-6.48
-5.24
-4.37
-4.37
-5.44
-7.44
-9.88
-12.15
-13.70
-14.22
-13.66
-12.20
-10.07
-7.54
-4.86
-2.29
-0.03
1.81
3.19
4.18
4.89
5.41
5.76
5.96
6.00
5.87
5.60
5.17
4.59
3.95
3.35
2.97
2.92
3.17
3.56
3.86
3.89
3.63
3.22
2.88
2.84
3.19
3.89
4.77
5.54
5.88
5.50
4.26
2.23
-0.29
-2.83
-4.95
-6.38
-7.04
-7.03
-6.47
-5.45
-3.96
-2.05
0.11
2.24
3.97
5.04
5.34
5.03
4.41
3.84
3.55
3.63
3.98
4.34
4.50
4.34
3.91
3.42
3.11
3.11
3.39
3.73
3.86
3.60
2.97
2.16
1.44
1.09
1.24
1.92
2.99
4.25
5.37
6.04
5.96
4.93
2.96
0.29
-2.68
-5.46
-7.61
-8.89
-9.25
-8.78
-7.66
-6.03
-4.07
-1.96
0.04
1.65
2.68
3.01
2.74
2.05
1.18
0.36
-0.31
-0.79
-1.15
-1.51
-1.96
-2.51
-3.03
-3.27
-3.05
-2.31
-1.27
-0.30
0.23
0.21
-0.21
-0.58
-0.47
0.36
1.81
3.46
4.79
5.31
4.77
3.20
0.85
-1.84
-4.40
-6.46
-7.76
-8.26
-8.03
-7.20
-5.86
-4.10
-2.00
0.26
2.42
4.19
5.40
5.99
6.09
5.90
5.64
5.41
5.21
4.99
4.69
4.26
3.71
3.12
2.57
2.16
1.98
2.00
2.15
2.24
2.13
1.77
1.21
0.62
0.17
0.00
0.14
0.55
1.09
1.57
1.71
1.19
-0.30
-2.85
-6.30
-10.19
-13.88
-16.76
-18.49
-19.01
-18.51
-17.27
-15.49
-13.33
-10.90
-8.40
-6.13
-4.38
-3.32
-2.87
-2.76
-2.64
-2.24
-1.46
-0.38
0.80
1.86
2.61
3.00
3.11
3.14
3.31
3.76
4.46
5.23
5.78
5.92
5.63
5.05
4.45
4.05
3.97
4.19
4.60
4.98
5.05
4.49
3.00
0.55
-2.66
-6.13
-9.22
-11.42
-12.44
-12.34
-11.36
-9.86
-8.11
-6.28
-4.46
-2.69
-1.05
0.39
1.50
2.19
2.40
2.16
1.58
0.82
0.05
-0.63
-1.15
-1.48
-1.55
-1.34
-0.81
-0.05
0.75
1.34
1.56
1.37
0.96
0.61
0.63
1.17
2.19
3.47
4.66
5.36
5.24
4.12
2.08
-0.56
-3.30
-5.62
-7.16
-7.75
-7.48
-6.54
-5.17
-3.54
-1.83
-0.15
1.36
2.61
3.54
4.15
4.48
4.55
4.38
3.98
3.34
2.51
1.52
0.45
-0.58
-1.45
-1.99
-2.12
-1.89
-1.50
-1.25
-1.41
-2.09
-3.16
-4.36
-5.33
-5.84
-5.80
-5.36
-4.85
-4.73
-5.44
-7.23
-10.05
-13.52
-17.01
-19.85
-21.57
-22.02
-21.31
-19.71
-17.46
-14.73
-11.59
-8.18
-4.69
-1.40
1.44
3.65
5.19
6.14
6.67
6.96
7.17
7.42
7.74
8.10
8.43
8.66
8.71
8.58
8.28
7.84
7.25
6.48
5.53
4.37
3.01
1.54
0.08
-1.24
-2.30
-3.13
-3.92
-5.02
-6.81
-9.58
-13.34
-17.79
-22.33
-26.29
-29.03
-30.15
-29.48
-27.16
-23.48
-18.87
-13.78
-8.58
-3.57
1.04
5.05
8.33
10.77
12.36
13.17
13.38
13.21
12.84
12.40
11.98
11.67
11.60
11.93
12.72
13.84
15.06
16.00
16.41
16.20
15.45
14.31
12.92
11.33
9.53
7.55
5.53
3.69
2.27
1.40
0.97
0.63
-0.14
-1.81
-4.67
-8.63
-13.25
-17.80
-21.45
-23.51
-23.63
-21.79
-18.31
-13.70
-8.51
-3.27
1.62
5.85
9.30
11.93
13.87
15.25
16.22
16.91
17.40
17.73
17.94
18.09
18.22
18.32
18.34
18.16
17.75
17.09
16.29
15.46
14.71
14.08
13.58
13.16
12.72
12.13
11.25
10.03
8.50
6.83
5.24
3.91
2.91
2.13
1.30
0.09
-1.76
-4.38
-7.68
-11.37
-15.00
-18.01
-19.87
-20.25
-19.05
-16.44
-12.82
-8.61
-4.23
-0.00
3.83
7.10
9.72
11.64
12.95
13.76
14.27
14.66
15.03
15.36
15.56
15.49
15.08
14.35
13.47
12.66
12.09
11.83
11.78
11.73
11.47
10.90
10.06
9.09
8.13
7.22
6.28
5.15
3.68
1.87
-0.19
-2.23
-3.98
-5.21
-5.82
-5.88
-5.64
-5.49
-5.85
-7.05
-9.23
-12.28
-15.88
-19.52
-22.66
-24.83
-25.69
-25.06
-22.95
-19.55
-15.16
-10.21
-5.17
-0.44
3.66
6.95
9.44
11.24
12.53
13.45
14.12
14.57
14.87
15.05
15.23
15.46
15.77
16.09
16.33
16.43
16.36
16.17
15.88
15.48
14.90
14.08
13.05
11.92
10.85
9.94
9.21
8.52
7.74
6.80
5.70
4.55
3.50
2.59
1.81
1.04
0.20
-0.73
-1.65
-2.38
-2.68
-2.39
-1.46
-0.06
1.50
2.74
3.15
2.36
0.22
-3.06
-6.96
-10.78
-13.82
-15.67
-16.19
-15.60
-14.23
-12.40
-10.29
-7.97
-5.50
-3.01
-0.72
1.18
2.58
3.53
4.17
4.61
4.92
5.08
5.10
5.01
4.92
4.90
5.00
5.18
5.42
5.74
6.13
6.60
7.08
7.45
7.58
7.48
7.19
6.85
6.53
6.26
6.01
5.76
5.51
5.25
4.96
4.52
3.85
2.89
1.79
0.79
0.20
0.25
0.93
2.02
3.10
3.74
3.56
2.43
0.47
-2.02
-4.58
-6.82
-8.41
-9.19
-9.16
-8.41
-7.07
-5.31
-3.29
-1.23
0.66
2.20
3.26
3.85
4.12
4.25
4.39
4.59
4.76
4.77
4.53
4.01
3.32
2.63
2.06
1.73
1.62
1.68
1.80
1.89
1.89
1.77
1.58
1.38
1.20
1.05
0.90
0.71
0.49
0.20
-0.13
-0.50
-0.86
-1.15
-1.25
-1.02
-0.43
0.45
1.32
1.84
1.66
0.61
-1.22
-3.54
-5.96
-8.11
-9.72
-10.65
-10.83
-10.28
-9.15
-7.65
-6.06
-4.65
-3.57
-2.77
-2.05
-1.23
-0.26
0.76
1.59
2.04
2.06
1.75
1.28
0.81
0.40
0.10
-0.09
-0.12
0.05
0.41
0.85
1.21
1.34
1.20
0.89
0.54
0.29
0.18
0.17
0.19
0.20
0.16
0.04
-0.23
-0.71
-1.38
-2.08
-2.47
-2.24
-1.21
0.44
2.18
3.31
3.22
1.68
-1.09
-4.49
-7.77
-10.31
-11.76
-12.14
-11.69
-10.78
-9.68
-8.56
-7.39
-6.11
-4.70
-3.25
-1.92
-0.89
-0.19
0.22
0.53
0.86
1.25
1.61
1.82
1.76
1.42
0.87
0.27
-0.23
-0.49
-0.45
-0.11
0.44
1.06
1.60
2.01
2.23
2.28
2.16
1.85
1.35
0.71
0.05
-0.50
-0.82
-0.90
-0.78
-0.49
-0.01
0.70
1.61
2.51
3.07
2.88
1.73
-0.34
-2.98
-5.67
-7.93
-9.42
-10.02
-9.77
-8.78
-7.22
-5.33
-3.35
-1.53
-0.06
1.00
1.69
2.10
2.32
2.41
2.38
2.23
1.98
1.67
1.38
1.19
1.18
1.39
1.77
2.22
2.59
2.74
2.64
2.36
2.06
1.89
1.94
2.17
2.45
2.60
2.49
2.07
1.43
0.76
0.28
0.18
0.58
1.42
2.52
3.51
4.03
3.73
2.52
0.56
-1.73
-3.86
-5.37
-6.03
-5.91
-5.27
-4.40
-3.47
-2.52
-1.43
-0.11
1.40
2.98
4.40
5.52
6.30
6.80
7.17
7.48
7.76
7.96
8.04
8.03
8.06
8.24
8.68
9.35
10.19
11.11
12.10
13.20
14.51
16.07
17.84
19.68
21.42
22.86
23.84
24.17
23.71
22.33
20.01
16.94
13.52
10.33
7.88
6.42
5.79
5.40
4.51
2.49
-0.84
-5.15
-9.73
-13.81
-16.79
-18.47
-18.93
-18.44
-17.34
-15.95
-14.57
-13.48
-12.86
-12.75
-13.05
-13.59
-14.21
-14.89
-15.67
-16.53
-17.35
-17.88
-17.88
-17.35
-16.50
-15.71
-15.30
-15.38
-15.77
-16.13
-16.15
-15.71
-14.92
-13.99
-13.25
-12.89
-13.02
-13.57
-14.33
-15.03
-15.37
-15.15
-14.32
-13.02
-11.59
-10.46
-10.07
-10.71
-12.50
-15.25
-18.60
-22.03
-25.09
-27.48
-29.12
-30.07
-30.45
-30.31
-29.58
-28.23
-26.23
-23.76
-21.03
-18.30
-15.73
-13.39
-11.29
-9.42
-7.76
-6.31
-5.10
-4.15
-3.49
-3.06
-2.68
-2.09
-1.03
0.65
2.83
5.14
7.05
8.14
8.28
7.71
6.86
6.18
5.88
5.95
6.21
6.46
6.49
6.17
5.38
4.02
2.12
-0.13
-2.36
-4.14
-5.12
-5.12
-4.23
-2.66
-0.69
1.45
3.59
5.61
7.44
9.00
10.26
11.20
11.88
12.35
12.68
12.92
13.10
13.16
13.09
12.88
12.56
12.17
11.80
11.46
11.12
10.75
10.41
10.19
10.22
10.51
10.96
11.31
11.32
10.87
10.04
9.07
8.22
7.62
7.24
6.93
6.48
5.78
4.83
3.72
2.62
1.74
1.27
1.33
1.81
2.41
2.66
2.07
0.42
-2.13
-5.08
-7.74
-9.51
-10.08
-9.50
-8.06
-6.14
-4.03
-1.89
0.21
2.22
4.07
5.69
7.04
8.09
8.86
9.38
9.71
9.90
10.02
10.13
10.30
10.57
10.91
11.33
11.77
12.17
12.51
12.75
12.92
13.07
13.22
13.35
13.39
13.28
12.94
12.42
11.84
11.35
11.06
11.00
11.08
11.19
11.22
11.09
10.83
10.52
10.37
10.62
11.54
13.27
15.82
18.90
21.99
24.40
25.37
24.31
20.87
15.00
7.04
-2.38
-12.34
-21.78
-29.64
-35.12
-37.81
-37.83
-35.79
-32.57
-29.04
-25.85
-23.21
-21.01
-19.02
-17.05
-15.10
-13.35
-12.04
-11.36
-11.39
-12.10
-13.38
-15.05
-16.90
-18.58
-19.64
-19.70
-18.49
-16.06
-12.74
-9.03
-5.44
-2.34
0.10
1.88
3.10
3.87
4.31
4.54
4.66
4.77
4.92
5.09
5.20
5.13
4.75
4.00
2.93
1.73
0.66
-0.03
-0.20
0.08
0.55
0.90
0.79
-0.00
-1.59
-3.93
-6.81
-9.84
-12.50
-14.26
-14.75
-13.91
-12.00
-9.48
-6.83
-4.39
-2.28
-0.47
1.10
2.44
3.49
4.21
4.58
4.67
4.60
4.51
4.48
4.56
4.69
4.80
4.83
4.78
4.73
4.76
4.95
5.28
5.67
6.06
6.36
6.56
6.66
6.63
6.42
6.03
5.49
4.92
4.44
4.11
3.89
3.67
3.40
3.08
2.75
2.48
2.26
2.09
1.98
1.99
2.21
2.65
3.09
3.12
2.32
0.44
-2.33
-5.47
-8.22
-9.97
-10.45
-9.75
-8.29
-6.55
-4.85
-3.36
-2.01
-0.70
0.68
2.13
3.57
4.88
5.93
6.64
7.01
7.08
6.96
6.71
6.36
5.89
5.27
4.52
3.75
3.13
2.86
3.02
3.56
4.24
4.75
4.83
4.37
3.49
2.46
1.57
0.97
0.69
0.56
0.39
0.02
-0.55
-1.21
-1.84
-2.30
-2.55
-2.53
-2.20
-1.54
-0.61
0.35
0.98
0.85
-0.29
-2.42
-5.18
-7.96
-10.13
-11.24
-11.12
-9.94
-8.03
-5.80
-3.65
-1.82
-0.42
0.55
1.20
1.67
2.10
2.55
3.02
3.45
3.78
3.93
3.87
3.55
3.00
2.31
1.61
1.07
0.83
0.97
1.48
2.26
3.11
3.86
4.38
4.61
4.64
4.57
4.50
4.48
4.45
4.33
4.00
3.45
2.77
2.12
1.68
1.56
1.75
2.09
2.35
2.21
1.46
0.01
-1.98
-4.21
-6.27
-7.78
-8.55
-8.58
-7.99
-6.97
-5.63
-4.03
-2.23
-0.35
1.41
2.78
3.60
3.81
3.55
2.97
2.25
1.49
0.78
0.21
-0.16
-0.30
-0.26
-0.15
-0.06
-0.03
-0.01
0.06
0.23
0.41
0.53
0.55
0.52
0.58
0.79
1.14
1.48
1.66
1.59
1.33
1.03
0.88
1.05
1.57
2.33
3.02
3.20
2.44
0.54
-2.34
-5.65
-8.60
-10.54
-11.18
-10.66
-9.43
-7.96
-6.54
-5.26
-4.05
-2.83
-1.62
-0.53
0.36
1.05
1.56
1.94
2.20
2.28
2.13
1.73
1.18
0.67
0.39
0.47
0.89
1.52
2.14
2.57
2.75
2.71
2.59
2.49
2.47
2.53
2.59
2.58
2.41
2.03
1.41
0.62
-0.18
-0.77
-0.96
-0.65
0.03
0.74
1.03
0.52
-0.97
-3.29
-6.06
-8.71
-10.75
-11.82
-11.86
-11.05
-9.69
-8.10
-6.47
-4.89
-3.39
-2.01
-0.86
-0.03
0.42
0.57
0.60
0.70
0.95
1.25
1.45
1.39
1.10
0.75
0.57
0.71
1.13
1.63
1.97
2.05
1.89
1.67
1.60
1.79
2.23
2.80
3.33
3.64
3.62
3.20
2.47
1.59
0.80
0.38
0.53
1.26
2.36
3.43
3.95
3.52
1.96
-0.55
-3.53
-6.38
-8.50
-9.52
-9.38
-8.31
-6.66
-4.82
-3.08
-1.58
-0.37
0.60
1.36
1.95
2.43
2.84
3.20
3.52
3.72
3.71
3.40
2.80
2.00
1.20
0.60
0.38
0.58
1.14
1.88
2.54
2.89
2.78
2.23
1.44
0.69
0.25
0.21
0.48
0.83
1.02
0.88
0.46
-0.04
-0.40
-0.39
0.02
0.67
1.20
1.19
0.31
-1.53
-4.07
-6.76
-9.01
-10.40
-10.84
-10.55
-9.81
-8.84
-7.62
-6.11
-4.25
-2.20
-0.25
1.29
2.23
2.58
2.54
2.31
2.08
1.91
1.81
1.73
1.63
1.50
1.39
1.40
1.64
2.17
2.93
3.75
4.40
4.68
4.54
4.04
3.35
2.65
2.08
1.69
1.44
1.27
1.10
0.85
0.49
-0.01
-0.60
-1.17
-1.57
-1.65
-1.34
-0.69
0.05
0.48
0.19
-1.12
-3.46
-6.47
-9.53
-11.93
-13.19
-13.17
-12.12
-10.45
-8.56
-6.65
-4.72
-2.75
-0.76
1.06
2.44
3.20
3.34
3.08
2.74
2.64
2.91
3.46
4.07
4.46
4.50
4.21
3.82
3.58
3.73
4.26
4.99
5.62
5.90
5.76
5.33
4.86
4.60
4.65
4.91
5.13
5.09
4.63
3.80
2.78
1.80
1.01
0.51
0.31
0.38
0.73
1.30
1.96
2.45
2.42
1.58
-0.11
-2.45
-4.98
-7.19
-8.69
-9.35
-9.20
-8.42
-7.18
-5.59
-3.73
-1.75
0.19
1.87
3.12
3.82
3.99
3.75
3.30
2.87
2.63
2.68
2.93
3.22
3.38
3.34
3.17
3.02
3.04
3.31
3.72
4.10
4.30
4.22
3.93
3.54
3.19
2.93
2.79
2.73
2.69
2.64
2.51
2.22
1.71
0.98
0.09
-0.76
-1.31
-1.33
-0.74
0.31
1.40
2.02
1.66
0.10
-2.55
-5.81
-9.04
-11.59
-13.03
-13.24
-12.44
-11.00
-9.29
-7.57
-5.95
-4.41
-2.95
-1.57
-0.34
0.64
1.33
1.71
1.85
1.80
1.65
1.47
1.30
1.16
1.06
1.01
1.00
1.10
1.38
1.91
2.67
3.55
4.38
4.98
5.30
5.38
5.37
5.36
5.38
5.32
5.03
4.42
3.52
2.49
1.54
0.86
0.56
0.58
0.83
1.21
1.64
2.05
2.27
2.05
1.09
-0.81
-3.62
-6.94
-10.17
-12.62
-13.87
-13.80
-12.64
-10.81
-8.74
-6.70
-4.80
-3.07
-1.52
-0.19
0.81
1.45
1.76
1.84
1.83
1.83
1.89
1.97
2.03
2.06
2.05
2.08
2.20
2.47
2.91
3.50
4.18
4.76
5.09
5.03
4.61
3.98
3.37
2.98
2.86
2.94
3.03
2.97
2.70
2.32
1.98
1.89
2.12
2.61
3.16
3.50
3.34
2.51
1.02
-1.00
-3.29
-5.57
-7.55
-9.02
-9.79
-9.78
-9.03
-7.64
-5.87
-3.95
-2.09
-0.43
0.94
1.97
2.61
2.86
2.82
2.69
2.63
2.76
3.02
3.22
3.21
2.91
2.45
2.08
2.03
2.40
3.05
3.73
4.15
4.14
3.67
2.91
2.08
1.42
1.08
1.08
1.33
1.67
1.92
1.95
1.69
1.17
0.46
-0.27
-0.86
-1.11
-0.91
-0.29
0.53
1.10
0.96
-0.20
-2.36
-5.12
-7.88
-10.03
-11.26
-11.55
-11.14
-10.32
-9.30
-8.14
-6.78
-5.22
-3.54
-1.90
-0.50
0.52
1.13
1.45
1.60
1.74
1.94
2.22
2.51
2.75
2.93
3.06
3.22
3.46
3.79
4.15
4.46
4.69
4.82
4.84
4.77
4.57
4.25
3.84
3.41
3.07
2.84
2.69
2.51
2.15
1.52
0.69
-0.23
-1.02
-1.46
-1.47
-1.08
-0.52
-0.14
-0.33
-1.31
-3.10
-5.40
-7.76
-9.70
-10.88
-11.14
-10.57
-9.36
-7.79
-6.13
-4.58
-3.22
-2.04
-0.98
0.01
0.93
1.71
2.29
2.66
2.87
2.99
3.06
3.04
2.81
2.35
1.73
1.18
0.93
1.12
1.72
2.50
3.18
3.53
3.49
3.17
2.78
2.55
2.64
3.03
3.60
4.11
4.31
4.03
3.28
2.21
1.11
0.26
-0.16
-0.04
0.57
1.54
2.63
3.45
3.59
2.68
0.63
-2.29
-5.49
-8.23
-9.93
-10.36
-9.72
-8.42
-6.91
-5.46
-4.13
-2.84
-1.52
-0.17
1.09
2.12
2.81
3.18
3.35
3.48
3.68
3.95
4.17
4.20
3.97
3.56
3.18
3.08
3.41
4.12
4.99
5.71
6.11
6.09
5.73
5.16
4.48
3.80
3.21
2.79
2.56
2.44
2.29
1.95
1.30
0.40
-0.56
-1.32
-1.63
-1.37
-0.60
0.45
1.44
1.95
1.63
0.32
-1.84
-4.46
-6.98
-8.89
-9.92
-10.12
-9.75
-9.08
-8.30
-7.38
-6.22
-4.75
-3.04
-1.31
0.13
1.09
1.53
1.58
1.44
1.33
1.34
1.45
1.55
1.56
1.50
1.48
1.65
2.10
2.83
3.64
4.36
4.83
5.04
5.05
4.99
4.88
4.71
4.43
4.01
3.54
3.12
2.82
2.59
2.33
1.91
1.29
0.50
-0.32
-1.00
-1.39
-1.34
-0.78
0.27
1.60
2.80
3.38
2.87
1.09
-1.80
-5.30
-8.73
-11.49
-13.17
-13.64
-13.05
-11.67
-9.82
-7.78
-5.75
-3.85
-2.16
-0.74
0.37
1.17
1.69
1.99
2.16
2.23
2.21
2.12
1.96
1.83
1.84
2.09
2.58
3.23
3.89
4.46
4.91
5.27
5.59
5.90
6.11
6.13
5.90
5.47
4.95
4.49
4.16
3.94
3.73
3.41
2.93
2.28
1.53
0.77
0.13
-0.20
-0.11
0.43
1.29
2.13
2.54
2.16
0.82
-1.34
-3.96
-6.53
-8.58
-9.82
-10.18
-9.74
-8.72
-7.33
-5.74
-4.06
-2.37
-0.79
0.54
1.44
1.84
1.77
1.46
1.18
1.12
1.33
1.66
1.92
1.95
1.74
1.43
1.21
1.25
1.55
2.05
2.59
3.06
3.39
3.55
3.56
3.44
3.21
2.92
2.65
2.50
2.55
2.79
3.08
3.22
3.01
2.36
1.33
0.16
-0.83
-1.33
-1.16
-0.33
0.93
2.20
2.97
2.79
1.48
-0.86
-3.75
-6.55
-8.68
-9.80
-9.89
-9.21
-8.09
-6.80
-5.47
-4.16
-2.91
-1.81
-0.95
-0.36
-0.01
0.23
0.46
0.72
0.94
1.03
0.92
0.65
0.32
0.08
0.04
0.27
0.76
1.48
2.34
3.22
3.95
4.37
4.37
3.95
3.25
2.51
1.99
1.87
2.13
2.64
3.14
3.39
3.29
2.83
2.12
1.33
0.59
0.03
-0.25
-0.16
0.37
1.34
2.61
3.88
4.68
4.60
3.35
0.95
-2.24
-5.64
-8.61
-10.70
-11.72
-11.76
-11.10
-10.02
-8.69
-7.22
-5.63
-3.98
-2.37
-0.95
0.12
0.72
0.86
0.66
0.30
0.01
-0.15
-0.19
-0.26
-0.48
-0.85
-1.21
-1.35
-1.14
-0.59
0.12
0.83
1.41
1.87
2.27
2.63
2.91
3.04
3.01
2.91
2.88
3.00
3.26
3.53
3.65
3.50
3.05
2.38
1.65
1.05
0.79
1.04
1.79
2.83
3.75
4.06
3.37
1.61
-0.94
-3.79
-6.35
-8.20
-9.12
-9.16
-8.53
-7.47
-6.20
-4.87
-3.53
-2.20
-0.89
0.34
1.37
2.08
2.40
2.39
2.18
1.94
1.75
1.59
1.38
1.09
0.80
0.66
0.81
1.27
1.88
2.41
2.66
2.54
2.14
1.63
1.18
0.94
1.00
1.32
1.77
2.16
2.34
2.23
1.92
1.60
1.48
1.69
2.26
3.08
4.00
4.82
5.29
5.15
4.19
2.35
-0.22
-3.10
-5.77
-7.79
-8.91
-9.13
-8.65
-7.73
-6.62
-5.46
-4.33
-3.26
-2.24
-1.29
-0.45
0.22
0.68
0.96
1.09
1.16
1.20
1.18
1.03
0.74
0.36
0.04
-0.05
0.18
0.68
1.29
1.82
2.09
2.05
1.72
1.22
0.70
0.37
0.36
0.75
1.42
2.14
2.59
2.56
1.98
0.98
-0.12
-0.98
-1.33
-1.03
-0.12
1.15
2.39
3.14
3.00
1.79
-0.38
-3.13
-5.94
-8.27
-9.77
-10.31
-10.01
-9.11
-7.90
-6.62
-5.42
-4.36
-3.45
-2.67
-1.96
-1.30
-0.71
-0.21
0.14
0.36
0.46
0.54
0.67
0.88
1.11
1.26
1.23
0.99
0.66
0.43
0.46
0.84
1.49
2.18
2.68
2.82
2.59
2.14
1.70
1.44
1.44
1.61
1.77
1.81
1.70
1.53
1.46
1.61
1.99
2.55
3.18
3.70
3.96
3.77
2.95
1.41
-0.76
-3.31
-5.85
-7.98
-9.44
-10.16
-10.18
-9.63
-8.66
-7.37
-5.86
-4.23
-2.64
-1.22
-0.09
0.69
1.15
1.36
1.46
1.56
1.72
1.94
2.16
2.27
2.27
2.15
2.03
2.03
2.26
2.78
3.53
4.35
5.04
5.36
5.20
4.63
3.89
3.29
3.08
3.24
3.58
3.75
3.52
2.87
1.96
1.09
0.52
0.40
0.76
1.49
2.38
3.14
3.43
2.94
1.54
-0.64
-3.23
-5.75
-7.72
-8.89
-9.17
-8.69
-7.66
-6.31
-4.88
-3.58
-2.56
-1.89
-1.53
-1.36
-1.22
-1.03
-0.73
-0.34
0.08
0.47
0.76
0.88
0.79
0.53
0.20
-0.04
0.01
0.43
1.24
2.27
3.29
4.05
4.35
4.14
3.50
2.67
1.92
1.47
1.40
1.65
2.02
2.31
2.33
2.05
1.54
0.93
0.42
0.14
0.25
0.79
1.76
2.95
4.05
4.65
4.36
2.99
0.64
-2.36
-5.49
-8.17
-9.99
-10.73
-10.41
-9.24
-7.53
-5.64
-3.87
-2.43
-1.41
-0.82
-0.54
-0.46
-0.47
-0.47
-0.43
-0.35
-0.29
-0.29
-0.41
-0.66
-1.03
-1.42
-1.72
-1.82
-1.71
-1.39
-0.98
-0.62
-0.44
-0.55
-0.99
-1.66
-2.39
-2.94
-3.16
-3.02
-2.67
-2.35
-2.24
-2.40
-2.68
-2.86
-2.75
-2.28
-1.62
-1.09
-1.01
-1.67
-3.16
-5.39
-8.16
-11.14
-13.94
-16.23
-17.71
-18.24
-17.79
-16.47
-14.52
-12.23
-9.86
-7.57
-5.41
-3.37
-1.40
0.43
1.94
2.96
3.43
3.44
3.24
3.09
3.17
3.50
3.96
4.41
4.73
4.90
4.95
4.93
4.90
4.92
5.02
5.14
5.14
4.86
4.15
3.00
1.58
0.17
-0.95
-1.60
-1.77
-1.62
-1.44
-1.53
-2.12
-3.29
-4.91
-6.68
-8.15
-8.94
-8.76
-7.56
-5.50
-2.89
-0.05
2.75
5.36
7.70
9.74
11.51
13.00
14.24
15.26
16.08
16.69
17.02
17.00
16.56
15.72
14.57
13.26
11.96
10.85
10.03
9.51
9.18
8.85
8.34
7.54
6.45
5.21
4.01
2.96
2.10
1.37
0.73
0.16
-0.25
-0.41
-0.30
0.07
0.68
1.55
2.70
4.06
5.38
6.20
6.03
4.57
1.94
-1.36
-4.58
-7.03
-8.38
-8.63
-8.10
-7.16
-6.00
-4.64
-3.00
-1.03
1.15
3.26
4.94
5.92
6.10
5.62
4.80
4.00
3.49
3.35
3.51
3.75
3.89
3.83
3.59
3.28
2.99
2.79
2.62
2.37
1.96
1.39
0.77
0.29
0.14
0.39
0.98
1.74
2.50
3.17
3.74
4.18
4.39
4.17
3.27
1.61
-0.69
-3.24
-5.53
-7.14
-7.87
-7.74
-6.92
-5.64
-4.06
-2.37
-0.75
0.60
1.46
1.73
1.47
0.91
0.33
-0.02
-0.03
0.26
0.65
0.95
1.02
0.85
0.57
0.31
0.22
0.34
0.63
0.99
1.32
1.53
1.59
1.54
1.48
1.60
2.11
3.11
4.46
5.78
6.54
6.25
4.73
2.21
-0.80
-3.66
-5.95
-7.45
-8.20
-8.30
-7.83
-6.87
-5.49
-3.87
-2.29
-0.97
-0.04
0.55
0.92
1.23
1.47
1.61
1.55
1.30
0.94
0.62
0.44
0.42
0.49
0.57
0.57
0.53
0.52
0.63
0.89
1.27
1.67
2.04
2.40
2.88
3.53
4.26
4.77
4.70
3.79
2.04
-0.22
-2.56
-4.55
-5.98
-6.81
-7.07
-6.79
-5.93
-4.51
-2.69
-0.77
0.86
1.95
2.46
2.58
2.53
2.46
2.38
2.19
1.77
1.16
0.49
-0.08
-0.40
-0.47
-0.36
-0.15
0.07
0.27
0.45
0.66
0.89
1.22
1.72
2.43
3.32
4.22
4.85
4.87
4.00
2.17
-0.46
-3.49
-6.38
-8.62
-9.92
-10.24
-9.73
-8.70
-7.38
-5.89
-4.30
-2.62
-1.00
0.35
1.23
1.55
1.39
1.02
0.70
0.59
0.64
0.74
0.75
0.61
0.42
0.28
0.28
0.43
0.64
0.76
0.67
0.35
-0.14
-0.69
-1.13
-1.33
-1.22
-0.80
-0.17
0.41
0.60
0.05
-1.45
-3.83
-6.65
-9.29
-11.13
-11.81
-11.36
-10.12
-8.53
-6.90
-5.36
-3.88
-2.42
-1.06
0.06
0.78
1.07
1.05
0.89
0.74
0.68
0.69
0.70
0.66
0.55
0.42
0.32
0.29
0.32
0.40
0.45
0.43
0.30
0.09
-0.13
-0.27
-0.24
-0.01
0.32
0.55
0.38
-0.43
-2.01
-4.28
-6.88
-9.38
-11.31
-12.38
-12.53
-11.89
-10.70
-9.16
-7.46
-5.72
-4.05
-2.59
-1.46
-0.71
-0.29
-0.07
0.10
0.32
0.62
0.97
1.30
1.52
1.59
1.47
1.20
0.84
0.48
0.24
0.16
0.18
0.22
0.15
-0.08
-0.45
-0.84
-1.09
-1.11
-0.84
-0.28
0.46
1.17
1.55
1.28
0.16
-1.80
-4.28
-6.76
-8.71
-9.74
-9.75
-8.90
-7.52
-5.88
-4.18
-2.52
-0.92
0.59
1.91
2.95
3.64
3.97
4.00
3.85
3.63
3.44
3.28
3.12
2.90
2.57
2.16
1.74
1.44
1.38
1.59
2.05
2.64
3.19
3.53
3.55
3.22
2.61
1.84
1.11
0.56
0.34
0.50
1.02
1.72
2.35
2.62
2.24
1.11
-0.68
-2.82
-4.87
-6.43
-7.19
-7.05
-6.04
-4.34
-2.18
0.17
2.44
4.41
5.93
6.98
7.61
7.92
8.04
8.06
8.06
8.13
8.36
8.76
9.18
9.40
9.17
8.38
7.16
5.80
4.64
3.90
3.58
3.53
3.53
3.49
3.40
3.36
3.41
3.50
3.49
3.21
2.60
1.74
0.86
0.25
0.19
0.76
1.85
3.09
3.97
4.05
3.09
1.22
-1.17
-3.60
-5.58
-6.88
-7.44
-7.38
-6.85
-5.97
-4.83
-3.49
-2.03
-0.55
0.80
1.92
2.76
3.28
3.54
3.59
3.55
3.54
3.63
3.85
4.10
4.28
4.26
3.98
3.50
2.96
2.50
2.26
2.21
2.25
2.26
2.15
1.90
1.56
1.17
0.73
0.23
-0.33
-0.95
-1.52
-1.98
-2.26
-2.37
-2.33
-2.13
-1.69
-0.97
0.01
1.02
1.67
1.55
0.43
-1.64
-4.33
-7.11
-9.48
-11.06
-11.67
-11.31
-10.13
-8.34
-6.18
-3.93
-1.81
0.03
1.53
2.75
3.75
4.57
5.23
5.74
6.11
6.39
6.60
6.78
6.89
6.90
6.76
6.52
6.27
6.10
6.08
6.15
6.17
5.99
5.53
4.83
4.04
3.35
2.86
2.55
2.28
1.88
1.26
0.50
-0.24
-0.71
-0.77
-0.39
0.29
0.98
1.34
1.08
0.03
-1.74
-4.03
-6.45
-8.58
-10.05
-10.64
-10.30
-9.16
-7.46
-5.46
-3.41
-1.54
0.02
1.19
1.99
2.49
2.82
3.08
3.31
3.49
3.57
3.54
3.42
3.34
3.44
3.80
4.41
5.15
5.83
6.29
6.43
6.30
5.99
5.65
5.35
5.11
4.88
4.64
4.39
4.15
3.96
3.82
3.72
3.66
3.68
3.88
4.32
4.94
5.48
5.63
5.08
3.72
1.75
-0.35
-2.01
-2.74
-2.29
-0.74
1.65
4.52
7.59
10.66
13.63
16.47
19.16
21.73
24.19
26.61
29.00
31.37
33.72
36.03
38.37
40.83
43.59
46.77
50.44
54.42
58.26
61.18
62.27
60.75
56.31
49.26
40.50
31.19
22.36
14.70
8.43
3.53
-0.10
-2.53
-3.82
-4.09
-3.60
-2.63
-1.46
-0.27
0.74
1.30
0.92
-0.92
-4.61
-10.18
-17.09
-24.45
-31.18
-36.45
-39.86
-41.54
-41.88
-41.31
-40.02
-38.04
-35.35
-32.12
-28.82
-26.14
-24.66
-24.65
-25.91
-27.93
-30.16
-32.25
-34.22
-36.27
-38.66
-41.45
-44.43
-47.13
-49.02
-49.67
-48.87
-46.70
-43.48
-39.66
-35.64
-31.62
-27.61
-23.40
-18.70
-13.32
-7.26
-0.68
6.10
12.67
18.61
23.49
26.97
28.84
29.13
28.19
26.65
25.24
24.53
24.71
25.37
25.58
24.20
20.26
13.40
4.06
-6.61
-17.11
-26.10
-32.78
-37.06
-39.40
-40.50
-40.96
-41.07
-40.79
-39.92
-38.25
-35.67
-32.20
-27.93
-23.09
-17.97
-12.94
-8.40
-4.68
-1.98
-0.24
0.77
1.40
1.96
2.62
3.32
3.89
4.15
3.98
3.45
2.69
1.88
1.05
0.11
-1.08
-2.60
-4.37
-6.13
-7.49
-8.15
-7.98
-7.06
-5.59
-3.86
-2.12
-0.51
0.91
2.15
3.23
4.20
5.08
5.86
6.53
7.10
7.61
8.11
8.65
9.16
9.48
9.43
8.87
7.77
6.30
4.73
3.32
2.16
1.27
0.53
-0.12
-0.72
-1.19
-1.44
-1.37
-0.95
-0.23
0.67
1.53
2.08
2.05
1.29
-0.14
-1.96
-3.70
-4.95
-5.45
-5.18
-4.35
-3.20
-1.95
-0.71
0.47
1.57
2.52
3.24
3.67
3.84
3.78
3.60
3.34
2.95
2.37
1.59
0.66
-0.26
-1.02
-1.56
-1.92
-2.21
-2.54
-2.98
-3.50
-4.01
-4.45
-4.78
-4.99
-5.06
-4.99
-4.80
-4.60
-4.63
-5.11
-6.21
-7.84
-9.66
-11.21
-12.04
-11.93
-10.90
-9.22
-7.23
-5.23
-3.42
-1.87
-0.57
0.54
1.50
2.37
3.18
3.90
4.51
4.94
5.15
5.13
4.90
4.53
4.08
3.62
3.25
3.00
2.86
2.73
2.42
1.76
0.70
-0.67
-2.14
-3.41
-4.26
-4.65
-4.67
-4.65
-4.95
-5.91
-7.70
-10.26
-13.28
-16.26
-18.66
-20.01
-20.07
-18.86
-16.60
-13.62
-10.23
-6.71
-3.28
-0.08
2.75
5.15
7.05
8.39
9.16
9.43
9.35
9.12
8.98
9.00
9.15
9.25
9.11
8.62
7.87
7.09
6.52
6.23
6.12
5.88
5.18
3.88
2.03
-0.12
-2.24
-4.06
-5.45
-6.41
-7.08
-7.74
-8.72
-10.31
-12.70
-15.78
-19.17
-22.25
-24.39
-25.05
-24.03
-21.41
-17.56
-12.92
-7.94
-2.97
1.75
6.03
9.74
12.81
15.16
16.81
17.86
18.47
18.81
19.06
19.29
19.52
19.69
19.76
19.69
19.49
19.20
18.90
18.62
18.39
18.16
17.83
17.26
16.36
15.10
13.56
11.91
10.33
8.95
7.78
6.73
5.62
4.29
2.66
0.79
-1.15
-2.95
-4.38
-5.38
-6.04
-6.63
-7.55
-9.15
-11.62
-14.92
-18.68
-22.33
-25.23
-26.79
-26.69
-24.86
-21.50
-17.01
-11.85
-6.48
-1.25
3.55
7.74
11.17
13.77
15.50
16.45
16.83
16.89
16.92
17.08
17.43
17.88
18.29
18.52
18.48
18.18
17.67
17.02
16.31
15.63
15.00
14.44
13.92
13.38
12.81
12.20
11.60
11.03
10.44
9.77
8.96
7.97
6.86
5.68
4.43
3.09
1.65
0.12
-1.37
-2.64
-3.52
-3.90
-3.81
-3.48
-3.26
-3.60
-4.91
-7.37
-10.79
-14.63
-18.11
-20.44
-21.14
-20.12
-17.65
-14.22
-10.32
-6.32
-2.48
0.99
3.92
6.16
7.65
8.49
8.87
9.06
9.25
9.57
10.01
10.46
10.81
10.95
10.85
10.56
10.23
10.00
9.94
10.03
10.14
10.08
9.71
9.05
8.22
7.44
6.89
6.61
6.47
6.26
5.77
4.90
3.72
2.40
1.18
0.24
-0.39
-0.74
-0.94
-1.14
-1.54
-2.32
-3.63
-5.51
-7.90
-10.54
-13.02
-14.88
-15.75
-15.43
-13.98
-11.63
-8.71
-5.57
-2.46
0.42
2.96
5.06
6.65
7.69
8.25
8.41
8.32
8.06
7.71
7.29
6.83
6.36
5.95
5.67
5.56
5.64
5.90
6.26
6.65
6.93
7.01
6.83
6.42
5.86
5.25
4.69
4.19
3.71
3.15
2.40
1.41
0.19
-1.12
-2.30
-3.06
-3.24
-2.88
-2.35
-2.15
-2.80
-4.59
-7.38
-10.71
-13.93
-16.43
-17.85
-18.10
-17.26
-15.54
-13.14
-10.27
-7.21
-4.23
-1.59
0.52
2.09
3.21
4.05
4.74
5.43
6.16
6.93
7.69
8.35
8.77
8.83
8.48
7.82
7.04
6.41
6.12
6.24
6.65
7.13
7.42
7.32
6.76
5.81
4.66
3.56
2.67
2.09
1.78
1.63
1.46
1.11
0.48
-0.44
-1.49
-2.43
-2.97
-2.97
-2.49
-1.89
-1.68
-2.30
-3.91
-6.37
-9.23
-11.95
-14.10
-15.39
-15.69
-15.00
-13.38
-10.96
-8.02
-4.89
-1.96
0.47
2.28
3.48
4.24
4.72
5.08
5.42
5.76
6.13
6.50
6.81
7.04
7.18
7.23
7.25
7.27
7.30
7.35
7.36
7.30
7.11
6.73
6.15
5.38
4.49
3.59
2.78
2.17
1.80
1.63
1.57
1.47
1.19
0.68
0.03
-0.54
-0.74
-0.37
0.50
1.54
2.23
2.10
0.93
-1.13
-3.60
-5.95
-7.77
-8.87
-9.25
-9.00
-8.22
-6.94
-5.27
-3.35
-1.41
0.31
1.62
2.44
2.80
2.81
2.62
2.38
2.17
2.04
1.98
1.93
1.86
1.77
1.71
1.75
1.90
2.11
2.27
2.32
2.22
2.04
1.87
1.78
1.79
1.88
1.97
1.98
1.84
1.53
1.09
0.64
0.32
0.29
0.58
1.10
1.62
1.87
1.61
0.75
-0.63
-2.29
-3.95
-5.34
-6.29
-6.73
-6.68
-6.21
-5.38
-4.27
-2.96
-1.61
-0.37
0.60
1.27
1.70
2.02
2.34
2.67
2.88
2.84
2.49
1.93
1.36
0.97
0.84
0.89
0.98
1.03
0.98
0.92
0.87
0.79
0.62
0.32
-0.08
-0.48
-0.80
-1.02
-1.21
-1.49
-1.87
-2.32
-2.68
-2.76
-2.47
-1.83
-1.03
-0.40
-0.29
-0.98
-2.52
-4.67
-6.97
-8.85
-9.91
-10.01
-9.29
-8.06
-6.65
-5.29
-4.07
-2.99
-2.02
-1.14
-0.36
0.31
0.84
1.22
1.44
1.46
1.32
1.08
0.83
0.67
0.65
0.76
0.93
1.09
1.17
1.18
1.16
1.13
1.14
1.17
1.21
1.20
1.13
0.97
0.75
0.50
0.23
-0.07
-0.42
-0.81
-1.11
-1.18
-0.90
-0.35
0.18
0.24
-0.53
-2.22
-4.54
-6.94
-8.82
-9.84
-9.95
-9.35
-8.33
-7.07
-5.62
-4.00
-2.24
-0.54
0.84
1.72
2.10
2.17
2.27
2.63
3.28
4.05
4.64
4.85
4.65
4.22
3.77
3.40
3.06
2.61
1.98
1.23
0.57
0.22
0.21
0.42
0.60
0.59
0.29
-0.24
-0.90
-1.59
-2.16
-2.51
-2.51
-2.13
-1.50
-0.95
-0.82
-1.34
-2.53
-4.08
-5.60
-6.76
-7.39
-7.53
-7.27
-6.70
-5.81
-4.65
-3.30
-1.93
-0.73
0.20
0.84
1.24
1.46
1.53
1.48
1.40
1.39
1.58
2.03
2.65
3.23
3.59
3.62
3.36
2.97
2.57
2.21
1.84
1.43
0.96
0.52
0.20
0.04
0.01
-0.02
-0.15
-0.44
-0.89
-1.40
-1.82
-2.02
-1.92
-1.60
-1.27
-1.31
-2.08
-3.77
-6.27
-9.16
-11.83
-13.69
-14.41
-13.98
-12.67
-10.89
-8.97
-7.10
-5.29
-3.48
-1.65
0.13
1.75
3.08
4.06
4.68
4.99
5.02
4.80
4.39
3.91
3.51
3.34
3.47
3.86
4.40
4.91
5.27
5.40
5.28
4.96
4.45
3.81
3.09
2.37
1.70
1.10
0.55
-0.00
-0.62
-1.28
-1.92
-2.41
-2.67
-2.72
-2.73
-2.98
-3.73
-5.10
-7.07
-9.36
-11.64
-13.53
-14.72
-15.07
-14.53
-13.20
-11.22
-8.79
-6.06
-3.22
-0.46
2.05
4.13
5.70
6.80
7.55
8.10
8.54
8.84
8.93
8.76
8.34
7.78
7.22
6.78
6.50
6.38
6.33
6.29
6.13
5.76
5.13
4.32
3.46
2.72
2.22
1.88
1.55
1.02
0.20
-0.87
-2.05
-3.17
-4.07
-4.72
-5.16
-5.51
-5.92
-6.58
-7.69
-9.30
-11.31
-13.43
-15.23
-16.29
-16.30
-15.20
-13.10
-10.32
-7.18
-4.02
-1.09
1.49
3.63
5.36
6.67
7.63
8.25
8.60
8.77
8.85
8.92
8.98
8.99
8.86
8.58
8.16
7.69
7.25
6.91
6.69
6.56
6.45
6.29
6.03
5.63
5.09
4.48
3.86
3.32
2.89
2.54
2.19
1.70
0.99
0.07
-0.98
-1.99
-2.83
-3.40
-3.68
-3.80
-3.98
-4.49
-5.59
-7.46
-10.04
-13.07
-16.06
-18.42
-19.65
-19.43
-17.75
-14.85
-11.17
-7.19
-3.38
-0.04
2.65
4.71
6.24
7.41
8.38
9.22
9.96
10.55
10.97
11.22
11.34
11.35
11.25
11.00
10.60
10.11
9.62
9.28
9.19
9.34
9.58
9.73
9.60
9.11
8.29
7.31
6.33
5.50
4.87
4.38
3.88
3.24
2.38
1.33
0.17
-0.96
-1.94
-2.70
-3.16
-3.34
-3.27
-3.08
-2.99
-3.30
-4.28
-6.03
-8.44
-11.12
-13.55
-15.20
-15.74
-15.07
-13.37
-10.99
-8.32
-5.68
-3.22
-0.95
1.12
2.98
4.55
5.71
6.41
6.71
6.80
6.86
7.00
7.23
7.43
7.51
7.42
7.21
7.01
6.91
6.98
7.15
7.35
7.49
7.49
7.33
7.04
6.65
6.18
5.69
5.20
4.73
4.25
3.75
3.17
2.51
1.76
1.01
0.34
-0.15
-0.39
-0.37
-0.10
0.33
0.81
1.17
1.20
0.71
-0.43
-2.19
-4.37
-6.61
-8.50
-9.69
-10.01
-9.47
-8.27
-6.63
-4.76
-2.84
-0.97
0.73
2.15
3.17
3.73
3.88
3.76
3.56
3.43
3.48
3.66
3.92
4.13
4.19
4.03
3.64
3.10
2.54
2.12
1.94
1.96
2.03
1.97
1.69
1.23
0.81
0.67
0.95
1.55
2.20
2.57
2.44
1.79
0.81
-0.17
-0.87
-1.09
-0.84
-0.26
0.39
0.87
0.94
0.41
-0.71
-2.32
-4.16
-5.89
-7.20
-7.89
-7.94
-7.44
-6.51
-5.27
-3.80
-2.20
-0.62
0.77
1.78
2.35
2.53
2.52
2.53
2.70
3.02
3.38
3.57
3.44
2.96
2.23
1.47
0.94
0.79
1.04
1.54
2.07
2.40
2.42
2.14
1.70
1.24
0.87
0.66
0.60
0.63
0.67
0.64
0.48
0.17
-0.25
-0.68
-0.95
-0.91
-0.46
0.37
1.37
2.23
2.60
2.20
1.00
-0.85
-3.02
-5.14
-6.90
-8.09
-8.67
-8.69
-8.27
-7.52
-6.56
-5.46
-4.24
-2.91
-1.50
-0.12
1.09
1.98
2.45
2.51
2.32
2.05
1.84
1.73
1.69
1.64
1.52
1.35
1.25
1.34
1.69
2.26
2.88
3.33
3.42
3.08
2.40
1.61
0.96
0.65
0.72
1.06
1.49
1.78
1.78
1.45
0.85
0.16
-0.39
-0.63
-0.45
0.06
0.74
1.31
1.53
1.23
0.35
-1.03
-2.76
-4.58
-6.24
-7.47
-8.13
-8.22
-7.85
-7.19
-6.36
-5.40
-4.31
-3.13
-1.96
-0.97
-0.30
0.05
0.19
0.31
0.52
0.79
1.00
1.02
0.77
0.32
-0.19
-0.63
-0.89
-0.93
-0.75
-0.32
0.35
1.16
1.97
2.57
2.79
2.56
1.99
1.31
0.74
0.45
0.45
0.64
0.89
1.07
1.14
1.12
1.05
0.98
0.97
1.08
1.34
1.73
2.12
2.30
2.04
1.22
-0.07
-1.56
-2.91
-3.85
-4.28
-4.33
-4.17
-3.98
-3.77
-3.44
-2.88
-2.06
-1.08
-0.15
0.52
0.80
0.77
0.60
0.51
0.61
0.92
1.30
1.59
1.70
1.63
1.47
1.35
1.32
1.32
1.28
1.09
0.71
0.21
-0.30
-0.65
-0.79
-0.70
-0.45
-0.15
0.06
0.07
-0.13
-0.53
-1.02
-1.47
-1.68
-1.53
-0.92
0.09
1.30
2.39
2.98
2.78
1.70
-0.11
-2.27
-4.32
-5.86
-6.71
-6.86
-6.49
-5.83
-5.08
-4.34
-3.65
-2.97
-2.25
-1.46
-0.60
0.26
1.04
1.62
1.94
1.99
1.88
1.74
1.69
1.82
2.09
2.45
2.82
3.22
3.64
4.13
4.64
5.08
5.33
5.34
5.14
4.90
4.76
4.84
5.09
5.38
5.51
5.37
4.94
4.29
3.56
2.89
2.36
2.02
1.86
1.86
1.91
1.86
1.49
0.59
-0.98
-3.18
-5.80
-8.44
-10.69
-12.24
-12.95
-12.88
-12.22
-11.19
-9.98
-8.71
-7.43
-6.18
-4.95
-3.79
-2.73
-1.84
-1.16
-0.72
-0.52
-0.53
-0.68
-0.89
-1.08
-1.19
-1.20
-1.11
-0.95
-0.81
-0.71
-0.71
-0.78
-0.90
-1.03
-1.13
-1.19
-1.21
-1.22
-1.23
-1.26
-1.32
-1.44
-1.64
-1.94
-2.31
-2.69
-2.92
-2.84
-2.29
-1.27
0.09
1.47
2.46
2.73
2.13
0.74
-1.15
-3.13
-4.82
-5.95
-6.43
-6.28
-5.65
-4.66
-3.46
-2.15
-0.87
0.26
1.07
1.52
1.64
1.59
1.54
1.65
1.96
2.41
2.83
3.11
3.17
3.06
2.91
2.84
2.91
3.07
3.20
3.20
2.99
2.65
2.28
2.01
1.89
1.85
1.77
1.51
1.07
0.54
0.12
-0.06
0.07
0.48
1.08
1.71
2.22
2.43
2.17
1.32
-0.08
-1.86
-3.66
-5.11
-5.92
-6.01
-5.47
-4.54
-3.46
-2.39
-1.38
-0.39
0.62
1.67
2.71
3.69
4.57
5.30
5.85
6.20
6.34
6.28
6.04
5.70
5.31
4.93
4.59
4.29
3.98
3.62
3.15
2.60
2.01
1.43
0.91
0.40
-0.16
-0.86
-1.76
-2.82
-4.01
-5.19
-6.26
-7.08
-7.51
-7.51
-7.13
-6.63
-6.36
-6.68
-7.80
-9.63
-11.79
-13.79
-15.16
-15.66
-15.30
-14.25
-12.77
-11.06
-9.26
-7.48
-5.79
-4.26
-2.94
-1.81
-0.86
-0.05
0.66
1.29
1.83
2.27
2.57
2.71
2.71
2.59
2.43
2.30
2.25
2.30
2.42
2.58
2.73
2.85
2.92
2.92
2.87
2.76
2.64
2.51
2.36
2.18
1.98
1.86
1.92
2.24
2.75
3.24
3.43
3.03
1.93
0.21
-1.90
-4.10
-6.10
-7.67
-8.69
-9.11
-8.95
-8.28
-7.19
-5.79
-4.14
-2.33
-0.46
1.34
2.94
4.25
5.30
6.15
6.89
7.54
8.04
8.33
8.37
8.21
7.96
7.74
7.61
7.53
7.42
7.21
6.86
6.39
5.83
5.21
4.53
3.79
2.97
2.09
1.20
0.40
-0.23
-0.56
-0.61
-0.53
-0.65
-1.34
-2.89
-5.35
-8.45
-11.66
-14.38
-16.10
-16.55
-15.76
-13.96
-11.51
-8.79
-6.09
-3.64
-1.55
0.14
1.47
2.53
3.43
4.25
4.99
5.56
5.86
5.81
5.44
4.85
4.24
3.75
3.47
3.37
3.38
3.41
3.43
3.42
3.39
3.30
3.12
2.79
2.29
1.65
0.94
0.28
-0.19
-0.33
-0.09
0.48
1.13
1.53
1.31
0.30
-1.45
-3.61
-5.78
-7.56
-8.67
-9.07
-8.79
-7.99
-6.82
-5.38
-3.82
-2.22
-0.67
0.78
2.11
3.28
4.26
5.00
5.45
5.63
5.64
5.58
5.56
5.57
5.53
5.35
5.00
4.52
4.07
3.77
3.65
3.60
3.48
3.15
2.60
1.94
1.32
0.87
0.62
0.51
0.51
0.54
0.57
0.47
0.10
-0.70
-2.00
-3.70
-5.52
-7.16
-8.37
-9.03
-9.19
-8.89
-8.15
-6.91
-5.19
-3.04
-0.68
1.61
3.56
4.98
5.81
6.09
5.92
5.46
4.88
4.32
3.84
3.47
3.17
2.93
2.71
2.52
2.36
2.20
1.99
1.70
1.34
0.97
0.62
0.27
-0.12
-0.57
-1.07
-1.50
-1.78
-1.87
-1.91
-2.15
-2.83
-4.13
-5.98
-8.16
-10.25
-11.85
-12.66
-12.54
-11.56
-9.88
-7.74
-5.38
-2.98
-0.69
1.38
3.12
4.50
5.52
6.24
6.75
7.12
7.38
7.52
7.49
7.29
6.92
6.47
6.01
5.61
5.33
5.16
5.03
4.84
4.52
4.09
3.60
3.19
2.91
2.78
2.64
2.31
1.62
0.50
-0.94
-2.49
-3.84
-4.78
-5.23
-5.30
-5.24
-5.43
-6.14
-7.54
-9.56
-11.93
-14.25
-16.08
-17.07
-17.06
-16.02
-14.10
-11.50
-8.44
-5.12
-1.74
1.48
4.36
6.74
8.55
9.82
10.71
11.36
11.85
12.18
12.31
12.21
11.92
11.54
11.20
10.97
10.85
10.79
10.71
10.54
10.26
9.84
9.28
8.57
7.72
6.76
5.78
4.83
3.94
3.11
2.32
1.54
0.76
0.00
-0.70
-1.26
-1.59
-1.62
-1.38
-1.03
-0.83
-1.12
-2.19
-4.14
-6.83
-9.91
-12.87
-15.23
-16.63
-16.94
-16.16
-14.47
-12.07
-9.18
-6.03
-2.82
0.22
2.94
5.20
6.96
8.27
9.23
10.00
10.65
11.22
11.69
11.99
12.05
11.88
11.57
11.25
11.10
11.22
11.64
12.30
13.03
13.67
14.05
14.09
13.79
13.26
12.71
12.35
12.34
12.71
13.31
13.91
14.31
14.41
14.26
14.02
13.81
13.77
13.93
14.33
14.90
15.53
15.92
15.71
14.55
12.29
9.16
5.63
2.32
-0.37
-2.38
-4.05
-5.90
-8.36
-11.55
-15.25
-19.01
-22.34
-24.87
-26.48
-27.20
-27.15
-26.51
-25.42
-24.05
-22.55
-21.05
-19.67
-18.41
-17.22
-15.99
-14.60
-12.97
-11.08
-9.00
-6.88
-4.91
-3.27
-2.06
-1.27
-0.75
-0.35
0.06
0.50
0.92
1.20
1.28
1.16
0.91
0.70
0.68
0.97
1.59
2.39
3.09
3.36
2.92
1.65
-0.32
-2.71
-5.11
-7.16
-8.56
-9.23
-9.17
-8.50
-7.39
-6.01
-4.52
-3.09
-1.77
-0.61
0.44
1.43
2.43
3.41
4.27
4.86
5.04
4.79
4.27
3.73
3.42
3.48
3.84
4.31
4.71
4.89
4.90
4.83
4.75
4.71
4.69
4.61
4.47
4.28
4.01
3.61
3.01
2.21
1.36
0.69
0.46
0.77
1.50
2.35
2.93
2.89
2.05
0.45
-1.71
-4.05
-6.21
-7.83
-8.71
-8.80
-8.21
-7.15
-5.82
-4.40
-3.00
-1.68
-0.46
0.64
1.60
2.37
2.92
3.23
3.36
3.41
3.55
3.89
4.39
4.92
5.24
5.24
4.96
4.59
4.35
4.34
4.45
4.47
4.24
3.77
3.25
2.90
2.80
2.85
2.78
2.38
1.66
0.80
0.05
-0.41
-0.53
-0.35
0.07
0.65
1.32
1.89
2.07
1.58
0.32
-1.57
-3.69
-5.56
-6.84
-7.40
-7.30
-6.72
-5.83
-4.74
-3.59
-2.51
-1.58
-0.87
-0.30
0.23
0.80
1.46
2.13
2.69
3.05
3.19
3.15
3.03
2.90
2.83
2.84
2.92
2.99
2.97
2.82
2.52
2.20
1.96
1.91
2.03
2.21
2.29
2.17
1.80
1.26
0.67
0.19
-0.03
0.08
0.56
1.39
2.41
3.40
4.06
4.08
3.31
1.75
-0.33
-2.54
-4.46
-5.79
-6.44
-6.55
-6.35
-6.04
-5.66
-5.13
-4.33
-3.22
-1.88
-0.50
0.67
1.49
1.90
1.94
1.73
1.36
0.94
0.56
0.28
0.16
0.23
0.47
0.78
1.08
1.30
1.44
1.54
1.67
1.80
1.87
1.75
1.40
0.89
0.39
0.12
0.24
0.73
1.46
2.20
2.77
3.04
2.93
2.39
1.35
-0.17
-2.06
-4.07
-5.84
-7.07
-7.58
-7.43
-6.84
-6.07
-5.27
-4.45
-3.53
-2.43
-1.22
-0.02
0.98
1.67
2.06
2.23
2.30
2.32
2.28
2.11
1.79
1.37
0.96
0.68
0.62
0.77
1.06
1.38
1.65
1.83
1.91
1.95
1.94
1.88
1.71
1.37
0.86
0.23
-0.35
-0.69
-0.63
-0.12
0.75
1.73
2.51
2.77
2.31
1.06
-0.86
-3.22
-5.69
-7.96
-9.71
-10.71
-10.82
-10.09
-8.69
-6.91
-5.06
-3.37
-1.95
-0.82
0.05
0.68
1.09
1.29
1.37
1.46
1.67
2.06
2.53
2.88
2.96
2.69
2.17
1.62
1.29
1.28
1.58
1.99
2.30
2.35
2.11
1.71
1.30
1.02
0.91
0.89
0.86
0.76
0.59
0.46
0.52
0.86
1.47
2.18
2.66
2.58
1.73
0.07
-2.16
-4.59
-6.81
-8.51
-9.59
-10.07
-10.04
-9.58
-8.70
-7.42
-5.79
-3.99
-2.23
-0.72
0.41
1.16
1.64
1.96
2.21
2.41
2.52
2.52
2.42
2.29
2.19
2.20
2.34
2.54
2.75
2.84
2.75
2.46
2.00
1.45
0.92
0.53
0.37
0.47
0.76
1.10
1.33
1.35
1.14
0.79
0.49
0.41
0.67
1.26
2.05
2.79
3.18
2.94
1.95
0.27
-1.83
-3.97
-5.80
-7.08
-7.76
-7.93
-7.71
-7.21
-6.43
-5.41
-4.19
-2.89
-1.63
-0.55
0.29
0.88
1.24
1.39
1.33
1.10
0.77
0.45
0.23
0.16
0.25
0.46
0.74
1.05
1.37
1.63
1.82
1.90
1.86
1.71
1.48
1.22
0.95
0.70
0.49
0.40
0.49
0.82
1.38
2.06
2.66
2.93
2.63
1.63
0.01
-1.98
-3.93
-5.49
-6.44
-6.76
-6.63
-6.25
-5.77
-5.19
-4.42
-3.40
-2.19
-0.95
0.08
0.76
1.04
1.03
0.93
0.88
0.99
1.25
1.55
1.81
1.94
1.94
1.83
1.64
1.43
1.22
1.03
0.86
0.67
0.42
0.07
-0.38
-0.85
-1.24
-1.44
-1.39
-1.07
-0.53
0.12
0.70
0.97
0.68
-0.32
-2.00
-4.12
-6.31
-8.19
-9.52
-10.26
-10.49
-10.34
-9.83
-8.93
-7.57
-5.80
-3.79
-1.79
-0.03
1.36
2.38
3.10
3.62
3.98
4.20
4.30
4.31
4.29
4.29
4.35
4.45
4.55
4.60
4.49
4.19
3.69
3.07
2.43
1.92
1.63
1.53
1.50
1.35
0.92
0.15
-0.86
-1.93
-2.79
-3.19
-3.02
-2.36
-1.56
-1.10
-1.47
-2.99
-5.57
-8.78
-11.95
-14.44
-15.78
-15.87
-14.82
-12.93
-10.52
-7.83
-5.11
-2.51
-0.19
1.77
3.33
4.54
5.50
6.26
6.85
7.24
7.38
7.26
6.93
6.47
6.02
5.72
5.66
5.88
6.27
6.67
6.91
6.88
6.59
6.15
5.70
5.32
5.04
4.76
4.39
3.84
3.10
2.21
1.26
0.41
-0.19
-0.40
-0.17
0.46
1.25
1.87
1.99
1.39
0.01
-1.97
-4.20
-6.24
-7.56
-7.76
-6.59
-4.02
-0.28
4.19
8.92
13.50
17.69
21.44
24.79
27.78
30.40
32.53
34.06
34.94
35.19
34.96
34.42
33.70
32.80
31.58
29.82
27.33
24.04
20.05
15.59
10.94
6.24
1.56
-3.13
-7.76
-12.15
-16.01
-19.05
-21.21
-22.69
-23.89
-25.25
-27.04
-29.29
-31.77
-34.16
-36.07
-37.21
-37.42
-36.75
-35.47
-34.08
-33.17
-33.19
-34.28
-36.16
-38.22
-39.76
-40.19
-39.24
-36.90
-33.42
-29.11
-24.31
-19.33
-14.43
-9.85
-5.80
-2.44
0.23
2.31
4.03
5.59
7.12
8.65
10.06
11.22
12.06
12.56
12.75
12.69
12.43
12.07
11.73
11.54
11.59
11.80
11.95
11.83
11.29
10.40
9.34
8.33
7.46
6.72
5.99
5.17
4.24
3.28
2.34
1.50
0.79
0.27
-0.01
-0.03
0.06
-0.03
-0.64
-2.02
-4.19
-6.87
-9.55
-11.76
-13.14
-13.53
-12.97
-11.57
-9.45
-6.77
-3.77
-0.72
2.05
4.34
6.14
7.53
8.72
9.80
10.75
11.47
11.89
11.97
11.84
11.65
11.51
11.48
11.50
11.45
11.26
10.90
10.43
9.96
9.64
9.51
9.53
9.57
9.44
9.02
8.30
7.39
6.41
5.47
4.55
3.62
2.62
1.63
0.77
0.16
-0.22
-0.54
-1.09
-2.15
-3.82
-5.97
-8.26
-10.29
-11.68
-12.22
-11.84
-10.63
-8.78
-6.50
-4.02
-1.55
0.70
2.58
4.01
5.03
5.74
6.27
6.72
7.07
7.29
7.31
7.12
6.78
6.41
6.09
5.84
5.63
5.39
5.09
4.74
4.40
4.12
3.89
3.68
3.42
3.03
2.48
1.79
1.02
0.25
-0.45
-1.02
-1.45
-1.76
-2.07
-2.51
-3.25
-4.45
-6.17
-8.35
-10.77
-13.13
-15.07
-16.26
-16.44
-15.51
-13.55
-10.80
-7.61
-4.41
-1.53
0.80
2.56
3.85
4.79
5.53
6.13
6.58
6.87
7.00
7.01
7.02
7.12
7.33
7.60
7.82
7.87
7.70
7.34
6.88
6.39
5.88
5.33
4.69
3.98
3.29
2.71
2.28
1.89
1.40
0.66
-0.36
-1.51
-2.50
-3.04
-2.97
-2.37
-1.58
-1.07
-1.30
-2.52
-4.66
-7.40
-10.18
-12.44
-13.79
-14.07
-13.38
-11.96
-10.06
-7.90
-5.61
-3.25
-0.89
1.35
3.35
4.94
6.06
6.68
6.89
6.82
6.62
6.42
6.29
6.23
6.21
6.15
6.01
5.80
5.55
5.32
5.14
4.99
4.85
4.71
4.54
4.37
4.20
4.06
3.89
3.65
3.29
2.79
2.17
1.51
0.91
0.50
0.39
0.59
1.02
1.50
1.72
1.42
0.40
-1.34
-3.63
-6.11
-8.42
-10.19
-11.18
-11.33
-10.65
-9.30
-7.48
-5.43
-3.40
-1.58
-0.09
1.09
2.02
2.81
3.49
4.05
4.40
4.50
4.40
4.19
3.98
3.83
3.73
3.64
3.53
3.43
3.41
3.55
3.81
4.11
4.31
4.35
4.23
4.03
3.75
3.37
2.79
1.99
1.10
0.34
-0.04
0.12
0.74
1.52
2.10
2.14
1.49
0.18
-1.57
-3.48
-5.26
-6.67
-7.53
-7.79
-7.50
-6.78
-5.76
-4.56
-3.21
-1.76
-0.26
1.16
2.34
3.17
3.63
3.80
3.81
3.79
3.77
3.72
3.56
3.27
2.88
2.47
2.12
1.87
1.73
1.63
1.50
1.28
0.93
0.48
-0.02
-0.48
-0.88
-1.25
-1.62
-2.04
-2.48
-2.80
-2.88
-2.63
-2.16
-1.75
-1.72
-2.37
-3.79
-5.82
-8.09
-10.18
-11.71
-12.50
-12.51
-11.83
-10.60
-8.95
-6.99
-4.87
-2.74
-0.81
0.75
1.87
2.59
3.09
3.55
4.08
4.65
5.10
5.28
5.11
4.71
4.27
3.98
3.90
3.95
3.95
3.72
3.21
2.51
1.77
1.16
0.77
0.59
0.55
0.50
0.34
0.00
-0.54
-1.21
-1.91
-2.50
-2.87
-3.01
-2.97
-2.94
-3.11
-3.65
-4.67
-6.17
-8.03
-10.06
-11.98
-13.49
-14.28
-14.14
-13.02
-10.99
-8.28
-5.16
-1.89
1.30
4.25
6.83
8.94
10.51
11.55
12.12
12.40
12.57
12.76
12.99
13.19
13.25
13.11
12.75
12.22
11.58
10.91
10.26
9.65
9.11
8.69
8.43
8.33
8.35
8.36
8.27
7.95
7.40
6.65
5.83
5.09
4.58
4.40
4.57
5.03
5.63
6.14
6.28
5.78
4.50
2.54
0.25
-1.85
-3.23
-3.59
-2.97
-1.76
-0.50
0.31
0.38
-0.29
-1.51
-3.01
-4.58
-6.09
-7.52
-8.86
-10.11
-11.26
-12.30
-13.26
-14.19
-15.12
-16.00
-16.75
-17.20
-17.23
-16.80
-15.98
-14.91
-13.72
-12.54
-11.38
-10.22
-9.01
-7.73
-6.40
-5.12
-4.03
-3.24
-2.78
-2.62
-2.68
-2.81
-2.87
-2.75
-2.37
-1.78
-1.11
-0.65
-0.69
-1.48
-3.03
-5.06
-7.13
-8.69
-9.40
-9.13
-8.05
-6.44
-4.60
-2.64
-0.60
1.55
3.77
5.88
7.68
9.00
9.78
10.12
10.20
10.16
10.07
9.89
9.54
9.02
8.42
7.89
7.56
7.51
7.72
8.08
8.48
8.77
8.90
8.83
8.55
8.07
7.43
6.66
5.81
4.98
4.24
3.67
3.26
2.87
2.27
1.20
-0.53
-2.90
-5.68
-8.45
-10.74
-12.17
-12.49
-11.66
-9.76
-7.03
-3.75
-0.27
3.11
6.16
8.72
10.71
12.09
12.88
13.16
13.03
12.66
12.17
11.62
11.00
10.30
9.52
8.73
7.99
7.39
6.93
6.54
6.15
5.70
5.18
4.59
3.99
3.41
2.89
2.39
1.82
1.08
0.11
-1.01
-2.04
-2.74
-2.96
-2.79
-2.56
-2.72
-3.65
-5.48
-8.09
-11.15
-14.27
-17.09
-19.32
-20.72
-21.18
-20.64
-19.23
-17.22
-14.92
-12.66
-10.61
-8.86
-7.39
-6.18
-5.21
-4.47
-3.95
-3.54
-3.16
-2.76
-2.36
-2.05
-1.89
-1.88
-1.94
-1.98
-1.91
-1.74
-1.54
-1.38
-1.34
-1.44
-1.68
-2.05
-2.52
-3.02
-3.45
-3.76
-3.90
-3.93
-3.91
-3.84
-3.70
-3.43
-3.06
-2.75
-2.78
-3.42
-4.77
-6.66
-8.70
-10.37
-11.22
-11.03
-9.87
-7.96
-5.64
-3.16
-0.71
1.67
3.98
6.21
8.28
10.05
11.36
12.12
12.33
12.12
11.69
11.22
10.77
10.36
9.91
9.40
8.83
8.28
7.83
7.49
7.25
7.01
6.68
6.16
5.40
4.40
3.24
2.05
0.95
0.06
-0.57
-0.98
-1.28
-1.64
-2.25
-3.28
-4.85
-7.02
-9.63
-12.33
-14.58
-15.79
-15.54
-13.77
-10.80
-7.23
-3.69
-0.57
2.02
4.21
6.17
7.95
9.45
10.45
10.85
10.67
10.09
9.35
8.63
8.04
7.54
7.08
6.61
6.14
5.69
5.28
4.90
4.49
4.03
3.53
3.03
2.54
2.08
1.62
1.09
0.46
-0.32
-1.20
-2.14
-3.06
-3.85
-4.38
-4.57
-4.45
-4.20
-4.19
-4.77
-6.20
-8.47
-11.24
-13.91
-15.87
-16.63
-16.00
-14.13
-11.34
-8.06
-4.70
-1.54
1.26
3.60
5.40
6.62
7.24
7.34
7.08
6.70
6.43
6.39
6.58
6.89
7.15
7.20
7.00
6.58
6.03
5.46
4.96
4.53
4.16
3.83
3.57
3.36
3.14
2.83
2.29
1.44
0.29
-1.05
-2.40
-3.57
-4.44
-4.98
-5.24
-5.44
-5.81
-6.65
-8.17
-10.37
-13.04
-15.70
-17.80
-18.84
-18.54
-16.87
-14.05
-10.47
-6.55
-2.69
0.78
3.66
5.85
7.37
8.35
8.94
9.29
9.55
9.77
9.99
10.15
10.20
10.06
9.72
9.22
8.72
8.39
8.36
8.65
9.12
9.54
9.68
9.41
8.75
7.86
6.96
6.24
5.83
5.69
5.68
5.59
5.20
4.37
3.14
1.65
0.14
-1.14
-2.01
-2.41
-2.41
-2.19
-2.09
-2.47
-3.65
-5.76
-8.65
-11.91
-14.92
-17.12
-18.06
-17.57
-15.70
-12.74
-9.05
-5.04
-1.07
2.60
5.79
8.43
10.49
11.97
12.89
13.30
13.34
13.20
13.12
13.19
13.42
13.66
13.70
13.44
12.89
12.19
11.57
11.17
11.08
11.24
11.50
11.74
11.81
11.67
11.29
10.70
9.97
9.18
8.41
7.74
7.13
6.50
5.69
4.64
3.42
2.22
1.35
1.05
1.38
2.14
2.93
3.28
2.75
1.15
-1.47
-4.77
-8.25
-11.33
-13.55
-14.63
-14.50
-13.30
-11.25
-8.66
-5.81
-2.97
-0.37
1.84
3.53
4.68
5.35
5.61
5.55
5.27
4.87
4.44
4.07
3.79
3.56
3.31
2.95
2.47
1.95
1.51
1.22
1.09
1.03
0.89
0.64
0.28
-0.08
-0.40
-0.72
-1.15
-1.78
-2.59
-3.41
-4.04
-4.34
-4.30
-4.05
-3.67
-3.21
-2.63
-1.97
-1.39
-1.21
-1.78
-3.29
-5.66
-8.48
-11.21
-13.35
-14.64
-15.04
-14.69
-13.78
-12.43
-10.70
-8.65
-6.44
-4.28
-2.44
-1.07
-0.13
0.59
1.36
2.33
3.47
4.58
5.38
5.71
5.57
5.10
4.51
4.00
3.65
3.47
3.43
3.45
3.42
3.22
2.76
2.03
1.14
0.26
-0.41
-0.71
-0.58
-0.09
0.61
1.25
1.52
1.13
-0.08
-2.12
-4.79
-7.71
-10.49
-12.73
-14.19
-14.73
-14.31
-13.04
-11.10
-8.74
-6.24
-3.88
-1.85
-0.26
0.88
1.61
2.01
2.14
2.07
1.86
1.52
1.07
0.56
0.02
-0.46
-0.78
-0.84
-0.60
-0.05
0.68
1.41
1.90
1.93
1.46
0.64
-0.22
-0.79
-0.87
-0.51
0.04
0.40
0.32
-0.20
-0.94
-1.58
-1.83
-1.58
-0.94
-0.18
0.40
0.49
-0.12
-1.55
-3.72
-6.41
-9.27
-11.86
-13.76
-14.66
-14.46
-13.22
-11.23
-8.83
-6.42
-4.27
-2.51
-1.13
-0.05
0.82
1.51
2.01
2.33
2.51
2.63
2.76
2.95
3.15
3.29
3.33
3.26
3.15
3.09
3.19
3.48
3.97
4.57
5.16
5.58
5.67
5.40
4.83
4.16
3.60
3.29
3.23
3.31
3.36
3.30
3.12
2.89
2.69
2.57
2.63
2.92
3.48
4.28
5.14
5.74
5.76
5.01
3.50
1.47
-0.74
-2.78
-4.41
-5.45
-5.85
-5.65
-4.92
-3.83
-2.55
-1.22
0.09
1.35
2.56
3.67
4.59
5.24
5.59
5.69
5.64
5.54
5.42
5.23
4.88
4.32
3.61
2.85
2.20
1.78
1.65
1.74
1.95
2.09
2.05
1.78
1.31
0.78
0.30
-0.02
-0.18
-0.20
-0.15
-0.07
0.02
0.07
0.03
-0.15
-0.49
-0.90
-1.21
-1.16
-0.56
0.58
2.02
3.35
4.09
3.91
2.74
0.81
-1.45
-3.65
-5.47
-6.82
-7.72
-8.26
-8.50
-8.49
-8.27
-7.89
-7.42
-6.91
-6.38
-5.82
-5.23
-4.60
-3.96
-3.35
-2.80
-2.37
-2.13
-2.12
-2.34
-2.67
-2.91
-2.84
-2.35
-1.51
-0.53
0.31
0.76
0.80
0.54
0.23
0.11
0.30
0.80
1.48
2.18
2.76
3.15
3.38
3.51
3.61
3.79
4.17
4.88
6.02
7.58
9.35
10.96
11.95
12.01
11.03
9.20
6.93
4.61
2.50
0.70
-0.76
-1.90
-2.64
-2.94
-2.82
-2.43
-1.98
-1.66
-1.55
-1.58
-1.59
-1.42
-1.01
-0.37
0.38
1.11
1.70
2.06
2.22
2.26
2.28
2.39
2.61
2.88
3.12
3.27
3.38
3.53
3.84
4.34
4.98
5.65
6.21
6.59
6.84
7.08
7.43
7.96
8.72
9.71
10.91
12.23
13.54
14.54
14.89
14.27
12.55
9.90
6.74
3.62
0.99
-0.95
-2.28
-3.21
-4.00
-4.73
-5.42
-5.95
-6.23
-6.27
-6.14
-5.99
-5.94
-6.11
-6.50
-7.05
-7.67
-8.28
-8.87
-9.48
-10.12
-10.81
-11.43
-11.85
-11.97
-11.76
-11.30
-10.67
-9.96
-9.24
-8.55
-7.93
-7.44
-7.12
-6.93
-6.78
-6.56
-6.22
-5.77
-5.25
-4.66
-3.95
-3.10
-2.17
-1.36
-1.01
-1.42
-2.68
-4.60
-6.75
-8.67
-10.04
-10.80
-11.12
-11.21
-11.21
-11.13
-10.85
-10.28
-9.39
-8.30
-7.18
-6.20
-5.49
-5.06
-4.85
-4.78
-4.78
-4.79
-4.81
-4.84
-4.84
-4.81
-4.74
-4.64
-4.52
-4.41
-4.26
-4.04
-3.71
-3.29
-2.83
-2.39
-2.02
-1.75
-1.58
-1.49
-1.45
-1.36
-1.07
-0.39
0.75
2.24
3.80
4.97
5.38
4.86
3.53
1.76
0.02
-1.29
-2.02
-2.27
-2.24
-2.16
-2.12
-2.04
-1.78
-1.23
-0.42
0.53
1.45
2.21
2.79
3.17
3.38
3.39
3.20
2.83
2.36
1.89
1.50
1.20
0.99
0.85
0.82
0.95
1.22
1.55
1.79
1.81
1.60
1.24
0.92
0.78
0.89
1.20
1.61
2.06
2.56
3.15
3.81
4.44
4.79
4.63
3.79
2.31
0.40
-1.57
-3.24
-4.39
-4.93
-4.95
-4.57
-3.91
-3.03
-1.96
-0.75
0.54
1.78
2.82
3.53
3.84
3.78
3.48
3.10
2.81
2.67
2.63
2.60
2.46
2.18
1.79
1.40
1.12
1.00
1.01
1.05
1.00
0.80
0.48
0.11
-0.20
-0.44
-0.65
-0.97
-1.48
-2.15
-2.78
-3.12
-2.97
-2.39
-1.68
-1.29
-1.64
-2.88
-4.85
-7.18
-9.41
-11.16
-12.27
-12.72
-12.62
-12.08
-11.23
-10.15
-8.92
-7.59
-6.18
-4.75
-3.34
-2.02
-0.89
-0.04
0.48
0.68
0.61
0.39
0.08
-0.24
-0.50
-0.65
-0.65
-0.49
-0.21
0.08
0.27
0.24
-0.01
-0.40
-0.78
-0.99
-0.99
-0.85
-0.74
-0.79
-1.06
-1.47
-1.79
-1.78
-1.30
-0.38
0.71
1.56
1.82
1.28
-0.00
-1.74
-3.54
-5.04
-6.01
-6.37
-6.18
-5.52
-4.50
-3.20
-1.70
-0.10
1.48
2.96
4.24
5.34
6.25
7.02
7.63
8.04
8.18
8.01
7.57
7.00
6.43
6.01
5.72
5.54
5.36
5.15
4.96
4.79
4.67
4.51
4.24
3.82
3.32
2.86
2.53
2.35
2.22
2.05
1.74
1.38
1.10
1.02
1.10
1.11
0.72
-0.33
-2.09
-4.37
-6.76
-8.80
-10.16
-10.68
-10.41
-9.49
-8.13
-6.53
-4.92
-3.44
-2.24
-1.37
-0.79
-0.39
-0.09
0.18
0.42
0.62
0.77
0.89
1.02
1.18
1.35
1.46
1.51
1.47
1.39
1.35
1.43
1.63
1.87
1.98
1.82
1.36
0.70
0.01
-0.52
-0.80
-0.87
-0.80
-0.66
-0.49
-0.32
-0.22
-0.37
-0.94
-2.02
-3.49
-5.09
-6.46
-7.33
-7.60
-7.36
-6.80
-6.09
-5.33
-4.52
-3.59
-2.49
-1.20
0.17
1.49
2.59
3.36
3.79
3.95
3.93
3.85
3.77
3.76
3.83
4.02
4.32
4.67
4.96
5.08
4.96
4.58
4.03
3.40
2.80
2.30
1.94
1.71
1.55
1.38
1.15
0.86
0.58
0.46
0.63
1.07
1.57
1.76
1.29
0.01
-1.95
-4.21
-6.32
-7.91
-8.83
-9.10
-8.80
-8.04
-6.84
-5.26
-3.40
-1.43
0.43
2.03
3.28
4.18
4.78
5.12
5.24
5.16
4.89
4.49
4.01
3.53
3.09
2.69
2.32
2.00
1.76
1.61
1.59
1.66
1.71
1.63
1.32
0.79
0.14
-0.45
-0.84
-0.91
-0.72
-0.40
-0.20
-0.35
-1.02
-2.23
-3.87
-5.67
-7.35
-8.66
-9.45
-9.70
-9.43
-8.65
-7.40
-5.65
-3.50
-1.12
1.20
3.16
4.53
5.25
5.45
5.35
5.19
5.11
5.15
5.24
5.26
5.12
4.79
4.28
3.64
2.93
2.17
1.39
0.64
-0.03
-0.58
-0.96
-1.24
-1.50
-1.87
-2.41
-3.13
-3.92
-4.62
-5.14
-5.53
-6.01
-6.90
-8.47
-10.85
-13.91
-17.28
-20.46
-22.90
-24.15
-23.96
-22.30
-19.37
-15.57
-11.35
-7.12
-3.18
0.28
3.20
5.54
7.30
8.46
9.06
9.27
9.24
9.15
9.09
9.04
9.00
8.95
8.92
8.90
8.85
8.70
8.35
7.82
7.19
6.63
6.21
5.93
5.69
5.34
4.85
4.30
3.84
3.55
3.39
3.14
2.49
1.20
-0.83
-3.49
-6.48
-9.37
-11.74
-13.22
-13.59
-12.78
-10.89
-8.13
-4.82
-1.32
2.00
4.80
6.85
8.09
8.59
8.55
8.21
7.79
7.38
7.03
6.70
6.40
6.12
5.90
5.70
5.45
5.06
4.43
3.53
2.43
1.24
0.13
-0.77
-1.39
-1.72
-1.80
-1.78
-1.83
-2.18
-3.09
-4.71
-7.03
-9.81
-12.57
-14.73
-15.76
-15.35
-13.52
-10.56
-6.94
-3.16
0.44
3.67
6.45
8.79
10.66
12.03
12.86
13.13
12.96
12.50
11.91
11.32
10.75
10.19
9.59
8.96
8.38
7.90
7.55
7.29
7.03
6.64
6.01
5.12
4.02
2.84
1.77
0.89
0.20
-0.41
-1.17
-2.20
-3.48
-4.82
-5.93
-6.62
-6.89
-6.92
-6.96
-7.15
-7.41
-7.56
-7.37
-6.70
-5.56
-4.07
-2.33
-0.42
1.63
3.75
5.83
7.69
9.21
10.30
11.01
11.38
11.48
11.33
10.93
10.31
9.54
8.70
7.84
6.88
5.70
4.14
2.12
-0.30
-2.88
-5.32
-7.39
-9.02
-10.43
-11.97
-14.06
-16.97
-20.73
-25.00
-29.17
-32.45
-34.11
-33.65
-30.93
-26.23
-20.14
-13.48
-7.04
-1.44
3.01
6.30
8.67
10.39
11.66
12.56
13.12
13.30
13.15
12.74
12.14
11.36
10.43
9.36
8.21
7.05
5.90
4.68
3.30
1.69
-0.12
-1.98
-3.67
-5.05
-6.07
-6.85
-7.63
-8.74
-10.54
-13.33
-17.21
-21.90
-26.74
-30.69
-32.67
-31.89
-28.13
-21.85
-13.97
-5.57
2.42
9.42
15.19
19.67
22.92
25.00
26.01
26.20
25.86
25.35
24.94
24.71
24.58
24.33
23.69
22.51
20.79
18.70
16.58
14.71
13.23
12.05
10.90
9.41
7.36
4.73
1.78
-1.05
-3.38
-4.94
-5.79
-6.19
-6.60
-7.54
-9.44
-12.53
-16.74
-21.52
-25.94
-28.84
-29.23
-26.63
-21.26
-14.02
-6.10
1.41
7.83
12.94
16.85
19.73
21.66
22.65
22.77
22.24
21.44
20.74
20.36
20.27
20.21
19.87
19.02
17.61
15.81
13.91
12.23
11.00
10.30
9.98
9.76
9.29
8.29
6.68
4.60
2.39
0.42
-1.02
-1.83
-2.11
-2.11
-2.21
-2.78
-4.19
-6.61
-10.00
-13.94
-17.71
-20.43
-21.34
-20.04
-16.64
-11.70
-6.01
-0.36
4.71
8.89
12.08
14.29
15.60
16.12
16.03
15.59
14.99
14.42
13.91
13.41
12.84
12.14
11.30
10.35
9.34
8.31
7.34
6.49
5.84
5.43
5.22
5.08
4.78
4.13
2.99
1.37
-0.58
-2.59
-4.36
-5.66
-6.39
-6.64
-6.64
-6.73
-7.24
-8.42
-10.34
-12.87
-15.64
-18.14
-19.79
-20.14
-18.95
-16.30
-12.53
-8.17
-3.74
0.34
3.81
6.61
8.74
10.21
11.08
11.45
11.45
11.27
11.06
10.88
10.71
10.46
10.01
9.31
8.40
7.44
6.64
6.16
6.06
6.23
6.44
6.48
6.18
5.57
4.74
3.86
3.01
2.22
1.54
1.01
0.73
0.76
0.98
1.13
0.80
-0.34
-2.38
-5.09
-8.01
-10.56
-12.28
-12.94
-12.57
-11.37
-9.62
-7.61
-5.50
-3.41
-1.42
0.43
2.08
3.45
4.50
5.24
5.70
5.98
6.19
6.39
6.59
6.76
6.85
6.85
6.81
6.84
7.04
7.47
8.08
8.74
9.29
9.62
9.66
9.42
8.99
8.46
7.91
7.41
6.98
6.63
6.35
6.12
5.90
5.66
5.32
4.77
3.93
2.72
1.17
-0.63
-2.50
-4.28
-5.83
-7.04
-7.90
-8.36
-8.41
-8.02
-7.22
-6.10
-4.79
-3.51
-2.41
-1.63
-1.17
-0.95
-0.85
-0.75
-0.62
-0.49
-0.44
-0.49
-0.62
-0.73
-0.74
-0.56
-0.23
0.21
0.71
1.21
1.68
2.10
2.38
2.47
2.29
1.88
1.37
0.95
0.80
1.05
1.70
2.61
3.56
4.22
4.34
3.74
2.46
0.71
-1.18
-2.91
-4.26
-5.22
-5.86
-6.29
-6.51
-6.41
-5.87
-4.82
-3.38
-1.80
-0.40
0.55
0.93
0.83
0.45
0.02
-0.30
-0.50
-0.65
-0.91
-1.37
-1.98
-2.62
-3.10
-3.25
-3.02
-2.48
-1.78
-1.07
-0.48
-0.01
0.33
0.58
0.74
0.83
0.90
1.07
1.40
1.90
2.41
2.63
2.27
1.12
-0.78
-3.15
-5.55
-7.54
-8.79
-9.23
-8.94
-8.17
-7.13
-5.98
-4.79
-3.57
-2.35
-1.21
-0.23
0.47
0.85
0.94
0.82
0.56
0.25
-0.11
-0.50
-0.90
-1.30
-1.64
-1.87
-1.94
-1.83
-1.53
-1.07
-0.54
-0.06
0.24
0.28
0.05
-0.37
-0.82
-1.14
-1.17
-0.86
-0.26
0.40
0.84
0.71
-0.21
-1.94
-4.23
-6.65
-8.77
-10.27
-11.07
-11.24
-10.91
-10.13
-8.90
-7.20
-5.14
-2.93
-0.84
0.87
2.04
2.67
2.85
2.68
2.33
1.98
1.75
1.70
1.75
1.76
1.56
1.12
0.55
0.08
-0.07
0.14
0.64
1.24
1.77
2.10
2.16
1.90
1.31
0.42
-0.59
-1.47
-1.89
-1.67
-0.83
0.30
1.26
1.60
1.05
-0.35
-2.35
-4.61
-6.76
-8.55
-9.82
-10.45
-10.37
-9.55
-8.02
-5.93
-3.56
-1.26
0.65
1.96
2.65
2.84
2.79
2.71
2.73
2.87
3.02
3.02
2.77
2.27
1.61
0.96
0.43
0.10
-0.08
-0.18
-0.27
-0.37
-0.49
-0.64
-0.84
-1.07
-1.29
-1.37
-1.19
-0.67
0.15
1.07
1.79
2.04
1.65
0.62
-0.89
-2.65
-4.42
-6.01
-7.32
-8.24
-8.70
-8.59
-7.89
-6.61
-4.93
-3.03
-1.18
0.44
1.71
2.58
3.06
3.19
3.01
2.61
2.15
1.79
1.64
1.74
1.97
2.17
2.21
2.03
1.65
1.19
0.77
0.49
0.39
0.46
0.61
0.69
0.55
0.10
-0.65
-1.56
-2.40
-2.92
-3.00
-2.66
-2.16
-1.84
-2.04
-2.99
-4.71
-7.00
-9.51
-11.77
-13.39
-14.11
-13.88
-12.76
-10.94
-8.63
-6.01
-3.30
-0.67
1.66
3.55
4.90
5.70
6.03
6.02
5.80
5.49
5.15
4.76
4.34
3.91
3.59
3.49
3.69
4.14
4.64
4.96
4.90
4.43
3.71
2.99
2.42
2.01
1.61
1.03
0.16
-0.91
-1.94
-2.66
-2.90
-2.69
-2.27
-2.01
-2.30
-3.40
-5.36
-8.02
-10.98
-13.75
-15.81
-16.79
-16.55
-15.16
-12.86
-9.96
-6.80
-3.66
-0.74
1.80
3.85
5.38
6.40
6.99
7.27
7.39
7.46
7.56
7.68
7.77
7.77
7.61
7.30
6.91
6.53
6.20
5.95
5.68
5.32
4.82
4.21
3.57
3.01
2.53
2.09
1.58
0.93
0.10
-0.82
-1.73
-2.47
-2.97
-3.21
-3.28
-3.40
-3.85
-4.93
-6.79
-9.38
-12.32
-15.10
-17.13
-18.02
-17.58
-15.89
-13.20
-9.83
-6.14
-2.41
1.03
3.94
6.15
7.63
8.45
8.75
8.73
8.58
8.45
8.48
8.67
8.95
9.16
9.14
8.85
8.39
7.95
7.72
7.76
7.95
8.07
7.89
7.35
6.52
5.62
4.83
4.24
3.85
3.57
3.30
2.96
2.50
1.91
1.19
0.42
-0.31
-0.90
-1.31
-1.59
-1.92
-2.56
-3.75
-5.58
-8.01
-10.75
-13.37
-15.37
-16.33
-16.04
-14.57
-12.18
-9.27
-6.18
-3.11
-0.15
2.62
5.08
7.02
8.24
8.73
8.66
8.36
8.15
8.22
8.51
8.83
8.91
8.63
7.96
7.04
6.07
5.25
4.72
4.54
4.69
5.04
5.41
5.65
5.66
5.40
4.95
4.40
3.84
3.33
2.87
2.43
1.96
1.42
0.84
0.31
-0.04
-0.09
0.18
0.66
1.05
1.02
0.24
-1.42
-3.87
-6.74
-9.53
-11.72
-12.94
-13.07
-12.20
-10.59
-8.54
-6.27
-3.93
-1.63
0.56
2.48
3.98
4.97
5.46
5.61
5.61
5.63
5.73
5.85
5.86
5.68
5.34
4.91
4.55
4.32
4.25
4.28
4.35
4.43
4.45
4.41
4.26
4.00
3.62
3.16
2.70
2.27
1.91
1.63
1.38
1.14
0.87
0.63
0.47
0.48
0.64
0.85
0.86
0.39
-0.77
-2.58
-4.80
-7.03
-8.85
-10.02
-10.52
-10.44
-9.91
-9.00
-7.73
-6.12
-4.28
-2.40
-0.69
0.70
1.73
2.45
2.89
3.07
2.98
2.62
2.10
1.57
1.23
1.14
1.30
1.58
1.82
1.93
1.91
1.81
1.71
1.64
1.59
1.47
1.21
0.78
0.22
-0.37
-0.87
-1.11
-1.01
-0.52
0.28
1.20
1.95
2.23
1.82
0.66
-1.13
-3.27
-5.43
-7.32
-8.77
-9.65
-9.90
-9.49
-8.41
-6.79
-4.82
-2.79
-0.94
0.54
1.59
2.23
2.57
2.73
2.81
2.88
2.95
3.02
3.05
3.04
3.02
3.06
3.19
3.40
3.61
3.71
3.64
3.37
2.90
2.29
1.56
0.76
-0.02
-0.64
-0.99
-1.01
-0.77
-0.39
-0.01
0.27
0.42
0.40
0.11
-0.61
-1.90
-3.81
-6.21
-8.79
-11.16
-12.95
-13.88
-13.84
-12.85
-11.05
-8.68
-5.99
-3.25
-0.70
1.46
3.14
4.32
5.05
5.44
5.62
5.70
5.78
5.88
5.96
5.96
5.79
5.45
5.00
4.60
4.41
4.50
4.80
5.08
5.09
4.67
3.81
2.68
1.49
0.41
-0.51
-1.27
-1.88
-2.29
-2.38
-2.07
-1.42
-0.65
-0.16
-0.34
-1.47
-3.60
-6.45
-9.54
-12.31
-14.20
-14.89
-14.28
-12.52
-9.91
-6.78
-3.46
-0.28
2.47
4.53
5.73
6.07
5.72
5.01
4.26
3.69
3.38
3.32
3.42
3.61
3.83
4.01
4.04
3.86
3.45
2.90
2.37
2.03
1.93
2.07
2.32
2.58
2.75
2.74
2.54
2.14
1.62
1.10
0.71
0.58
0.74
1.09
1.39
1.38
0.83
-0.35
-2.07
-4.12
-6.16
-7.88
-9.00
-9.34
-8.85
-7.62
-5.90
-4.01
-2.26
-0.86
0.13
0.78
1.22
1.52
1.70
1.70
1.49
1.13
0.72
0.41
0.25
0.24
0.28
0.29
0.28
0.31
0.50
0.91
1.52
2.21
2.79
3.09
3.07
2.81
2.48
2.26
2.30
2.64
3.28
4.17
5.20
6.21
6.93
7.07
6.47
5.14
3.33
1.42
-0.19
-1.28
-1.83
-1.97
-1.85
-1.54
-1.04
-0.35
0.47
1.32
2.02
2.43
2.55
2.46
2.35
2.37
2.62
3.04
3.55
3.98
4.25
4.30
4.21
4.09
4.05
4.19
4.52
4.98
5.48
5.91
6.14
6.09
5.73
5.09
4.28
3.45
2.82
2.51
2.57
2.91
3.33
3.57
3.40
2.69
1.38
-0.46
-2.67
-4.99
-7.11
-8.74
-9.68
-9.94
-9.65
-8.99
-8.11
-7.05
-5.83
-4.54
-3.33
-2.42
-1.94
-1.83
-1.91
-1.93
-1.77
-1.46
-1.20
-1.16
-1.38
-1.76
-2.09
-2.23
-2.12
-1.82
-1.45
-1.09
-0.80
-0.60
-0.48
-0.47
-0.59
-0.90
-1.37
-1.91
-2.35
-2.47
-2.12
-1.28
-0.15
0.95
1.62
1.55
0.64
-0.96
-3.01
-5.15
-7.10
-8.61
-9.51
-9.70
-9.14
-7.95
-6.35
-4.60
-2.96
-1.56
-0.43
0.45
1.11
1.57
1.84
1.97
2.04
2.14
2.29
2.42
2.44
2.25
1.92
1.57
1.35
1.37
1.58
1.83
1.96
1.89
1.65
1.39
1.22
1.20
1.29
1.38
1.38
1.34
1.36
1.54
1.87
2.22
2.34
2.00
1.13
-0.17
-1.69
-3.20
-4.55
-5.58
-6.24
-6.41
-6.01
-5.05
-3.61
-1.94
-0.30
1.06
1.99
2.46
2.54
2.34
2.00
1.64
1.39
1.34
1.54
1.96
2.47
2.95
3.27
3.38
3.33
3.25
3.22
3.29
3.41
3.51
3.50
3.36
3.05
2.59
2.00
1.34
0.73
0.35
0.30
0.56
0.90
0.96
0.37
-1.06
-3.26
-5.93
-8.58
-10.77
-12.17
-12.63
-12.19
-11.00
-9.28
-7.26
-5.13
-3.03
-1.09
0.58
1.91
2.83
3.37
3.61
3.64
3.56
3.43
3.28
3.12
2.99
2.90
2.86
2.84
2.80
2.69
2.52
2.30
2.08
1.86
1.65
1.38
1.03
0.58
0.04
-0.52
-1.01
-1.36
-1.46
-1.27
-0.85
-0.37
-0.16
-0.52
-1.66
-3.57
-5.96
-8.41
-10.47
-11.83
-12.35
-12.02
-10.99
-9.44
-7.61
-5.68
-3.85
-2.20
-0.72
0.63
1.88
2.99
3.88
4.46
4.74
4.80
4.82
4.88
5.01
5.13
5.14
5.00
4.73
4.41
4.13
3.95
3.88
3.93
4.07
4.24
4.32
4.19
3.76
2.99
1.97
0.88
-0.11
-0.80
-1.09
-1.00
-0.63
-0.21
-0.03
-0.37
-1.41
-3.15
-5.35
-7.66
-9.68
-11.11
-11.79
-11.73
-11.03
-9.79
-8.15
-6.18
-4.01
-1.77
0.34
2.15
3.53
4.45
4.99
5.29
5.46
5.59
5.65
5.60
5.41
5.16
4.97
4.94
5.09
5.31
5.41
5.26
4.88
4.35
3.82
3.40
3.06
2.74
2.39
2.02
1.72
1.55
1.56
1.75
2.09
2.51
2.94
3.20
3.08
2.34
0.87
-1.27
-3.81
-6.36
-8.55
-10.09
-10.84
-10.80
-10.04
-8.68
-6.88
-4.82
-2.67
-0.64
1.09
2.35
3.09
3.31
3.16
2.87
2.63
2.60
2.78
3.11
3.46
3.75
3.92
3.96
3.87
3.62
3.25
2.80
2.43
2.27
2.40
2.80
3.28
3.60
3.60
3.22
2.59
1.93
1.47
1.36
1.59
2.06
2.51
2.68
2.28
1.14
-0.75
-3.17
-5.75
-8.04
-9.72
-10.63
-10.74
-10.14
-8.92
-7.22
-5.16
-3.00
-1.02
0.52
1.48
1.90
1.95
1.86
1.81
1.82
1.83
1.75
1.50
1.15
0.83
0.72
0.96
1.54
2.32
3.09
3.67
4.00
4.15
4.26
4.39
4.48
4.41
4.10
3.57
2.98
2.46
2.04
1.63
1.08
0.37
-0.36
-0.82
-0.84
-0.46
0.02
0.19
-0.29
-1.51
-3.37
-5.60
-7.95
-10.18
-12.06
-13.36
-13.82
-13.29
-11.77
-9.46
-6.71
-3.88
-1.27
0.92
2.60
3.77
4.47
4.82
4.96
5.02
5.05
5.02
4.85
4.50
3.96
3.36
2.87
2.60
2.59
2.77
3.00
3.16
3.21
3.15
3.06
2.98
2.92
2.83
2.61
2.21
1.61
0.88
0.14
-0.48
-0.86
-0.94
-0.67
-0.09
0.72
1.59
2.24
2.39
1.81
0.43
-1.62
-4.08
-6.62
-8.91
-10.70
-11.80
-12.07
-11.45
-10.00
-7.93
-5.53
-3.14
-1.04
0.62
1.82
2.64
3.21
3.65
4.03
4.39
4.71
5.00
5.22
5.35
5.39
5.33
5.14
4.85
4.49
4.15
3.95
3.93
4.06
4.21
4.23
4.05
3.71
3.36
3.15
3.16
3.31
3.44
3.36
2.97
2.31
1.52
0.82
0.40
0.35
0.64
1.11
1.53
1.61
1.13
-0.03
-1.81
-4.00
-6.30
-8.37
-9.96
-10.91
-11.15
-10.72
-9.70
-8.25
-6.52
-4.69
-2.89
-1.22
0.28
1.57
2.63
3.41
3.92
4.17
4.21
4.07
3.76
3.31
2.80
2.37
2.22
2.45
3.06
3.83
4.49
4.76
4.54
3.92
3.17
2.55
2.27
2.33
2.63
2.93
3.06
2.90
2.45
1.84
1.25
0.84
0.79
1.10
1.70
2.39
2.84
2.75
1.87
0.17
-2.16
-4.76
-7.19
-9.09
-10.25
-10.60
-10.20
-9.18
-7.65
-5.80
-3.82
-1.99
-0.50
0.54
1.15
1.50
1.76
2.04
2.36
2.63
2.77
2.72
2.56
2.40
2.38
2.54
2.82
3.11
3.30
3.31
3.13
2.81
2.40
1.93
1.45
1.02
0.72
0.60
0.66
0.84
1.06
1.26
1.43
1.66
2.07
2.71
3.50
4.22
4.51
4.08
2.75
0.62
-1.99
-4.61
-6.84
-8.38
-9.17
-9.28
-8.92
-8.26
-7.40
-6.38
-5.17
-3.76
-2.20
-0.63
0.78
1.83
2.43
2.60
2.48
2.24
2.04
1.90
1.79
1.66
1.55
1.54
1.74
2.18
2.75
3.28
3.60
3.60
3.37
3.08
2.89
2.91
3.08
3.29
3.39
3.33
3.13
2.87
2.63
2.42
2.26
2.15
2.15
2.31
2.64
3.04
3.24
2.93
1.85
-0.09
-2.67
-5.50
-8.11
-10.11
-11.36
-11.88
-11.81
-11.28
-10.37
-9.09
-7.51
-5.76
-4.01
-2.41
-1.03
0.16
1.18
2.01
2.55
2.70
2.45
1.95
1.42
1.05
0.91
0.93
1.00
1.08
1.15
1.31
1.56
1.89
2.20
2.42
2.56
2.68
2.81
2.90
2.86
2.61
2.16
1.59
1.00
0.50
0.13
-0.06
0.01
0.35
0.93
1.52
1.81
1.44
0.26
-1.64
-3.93
-6.17
-7.97
-9.15
-9.71
-9.77
-9.45
-8.83
-7.94
-6.81
-5.50
-4.11
-2.74
-1.50
-0.45
0.39
1.07
1.63
2.13
2.56
2.88
3.02
2.99
2.84
2.68
2.63
2.71
2.91
3.16
3.41
3.64
3.88
4.14
4.36
4.47
4.44
4.29
4.14
4.06
4.08
4.09
3.98
3.69
3.32
3.09
3.18
3.67
4.37
4.94
4.96
4.15
2.50
0.23
-2.26
-4.59
-6.48
-7.83
-8.68
-9.12
-9.20
-8.90
-8.17
-7.03
-5.57
-3.97
-2.44
-1.17
-0.25
0.33
0.63
0.78
0.92
1.14
1.44
1.77
2.00
1.99
1.71
1.24
0.79
0.54
0.61
0.96
1.44
1.86
2.05
1.96
1.64
1.21
0.84
0.64
0.71
1.08
1.72
2.48
3.14
3.48
3.33
2.64
1.49
0.04
-1.54
-3.10
-4.58
-5.90
-6.99
-7.75
-8.07
-7.84
-7.02
-5.67
-4.00
-2.27
-0.78
0.22
0.68
0.67
0.44
0.27
0.34
0.69
1.19
1.63
1.82
1.67
1.21
0.63
0.09
-0.22
-0.29
-0.19
-0.08
-0.10
-0.31
-0.66
-1.06
-1.44
-1.74
-1.98
-2.17
-2.31
-2.42
-2.58
-2.90
-3.56
-4.66
-6.20
-8.00
-9.78
-11.22
-12.05
-12.13
-11.43
-10.04
-8.14
-5.95
-3.67
-1.48
0.48
2.10
3.29
3.99
4.21
4.06
3.72
3.39
3.23
3.25
3.38
3.49
3.46
3.29
3.07
2.93
2.97
3.22
3.58
3.92
4.13
4.16
4.01
3.71
3.27
2.67
1.88
0.97
0.09
-0.54
-0.78
-0.65
-0.42
-0.49
-1.30
-3.08
-5.76
-9.01
-12.25
-14.88
-16.42
-16.64
-15.62
-13.67
-11.18
-8.49
-5.80
-3.22
-0.81
1.31
3.00
4.16
4.78
4.97
4.95
4.91
4.96
5.09
5.27
5.43
5.56
5.62
5.61
5.51
5.31
5.06
4.82
4.59
4.35
4.04
3.57
2.94
2.16
1.33
0.59
0.10
-0.06
0.08
0.30
0.28
-0.35
-1.84
-4.19
-7.09
-10.02
-12.40
-13.81
-14.04
-13.13
-11.33
-8.90
-6.13
-3.23
-0.40
2.17
4.32
5.92
6.95
7.46
7.59
7.50
7.30
7.04
6.71
6.32
5.87
5.49
5.32
5.47
5.91
6.47
6.86
6.84
6.30
5.34
4.21
3.20
2.54
2.30
2.42
2.78
3.20
3.53
3.54
2.98
1.64
-0.52
-3.32
-6.34
-8.99
-10.79
-11.42
-10.88
-9.36
-7.21
-4.73
-2.19
0.24
2.44
4.29
5.72
6.68
7.20
7.33
7.18
6.85
6.41
5.95
5.48
5.04
4.71
4.54
4.62
4.94
5.42
5.92
6.24
6.24
5.87
5.18
4.31
3.44
2.74
2.34
2.32
2.58
2.95
3.08
2.67
1.49
-0.42
-2.81
-5.28
-7.43
-8.97
-9.77
-9.82
-9.22
-8.07
-6.48
-4.61
-2.61
-0.62
1.21
2.80
4.07
5.00
5.52
5.66
5.48
5.09
4.64
4.21
3.86
3.60
3.42
3.36
3.44
3.63
3.87
4.01
3.91
3.50
2.84
2.10
1.50
1.24
1.46
2.14
3.19
4.37
5.37
5.86
5.59
4.48
2.64
0.34
-2.08
-4.31
-6.11
-7.34
-7.92
-7.81
-7.05
-5.76
-4.14
-2.44
-0.85
0.48
1.52
2.24
2.68
2.88
2.90
2.83
2.74
2.68
2.63
2.52
2.32
2.04
1.74
1.52
1.46
1.57
1.77
1.93
1.91
1.61
0.99
0.13
-0.77
-1.45
-1.66
-1.27
-0.31
0.98
2.24
3.08
3.21
2.50
1.02
-0.95
-3.05
-4.89
-6.19
-6.77
-6.66
-5.97
-4.88
-3.58
-2.21
-0.91
0.23
1.11
1.70
2.00
2.13
2.22
2.34
2.48
2.55
2.43
2.11
1.67
1.25
1.04
1.11
1.45
1.92
2.35
2.60
2.57
2.28
1.79
1.24
0.73
0.36
0.21
0.36
0.86
1.74
2.90
4.05
4.80
4.77
3.73
1.82
-0.59
-2.97
-4.87
-6.12
-6.77
-6.98
-6.90
-6.55
-5.86
-4.80
-3.43
-1.92
-0.48
0.71
1.57
2.13
2.43
2.54
2.47
2.23
1.84
1.34
0.82
0.41
0.22
0.35
0.83
1.52
2.25
2.79
3.01
2.90
2.61
2.32
2.20
2.27
2.45
2.61
2.68
2.71
2.82
3.14
3.64
4.13
4.24
3.64
2.13
-0.16
-2.84
-5.45
-7.58
-9.03
-9.78
-9.90
-9.43
-8.38
-6.77
-4.75
-2.58
-0.62
0.87
1.76
2.11
2.06
1.78
1.41
1.05
0.77
0.65
0.71
0.93
1.20
1.42
1.54
1.59
1.66
1.85
2.22
2.72
3.24
3.65
3.79
3.60
3.06
2.22
1.18
0.14
-0.70
-1.13
-1.00
-0.34
0.65
1.62
2.18
2.00
0.96
-0.88
-3.26
-5.80
-8.09
-9.79
-10.61
-10.46
-9.40
-7.69
-5.68
-3.77
-2.21
-1.12
-0.45
-0.06
0.22
0.51
0.85
1.22
1.54
1.72
1.70
1.48
1.12
0.74
0.48
0.42
0.56
0.85
1.19
1.50
1.74
1.87
1.93
1.92
1.87
1.76
1.60
1.37
1.12
0.91
0.86
1.04
1.42
1.87
2.11
1.90
1.04
-0.47
-2.50
-4.78
-7.03
-8.98
-10.46
-11.35
-11.58
-11.14
-10.06
-8.45
-6.45
-4.27
-2.16
-0.37
0.92
1.60
1.75
1.55
1.23
0.98
0.91
1.02
1.26
1.54
1.80
1.98
2.05
2.03
1.97
1.99
2.18
2.57
3.08
3.55
3.75
3.59
3.12
2.57
2.22
2.28
2.80
3.66
4.63
5.47
5.95
5.92
5.29
4.05
2.29
0.20
-1.94
-3.85
-5.31
-6.22
-6.59
-6.49
-6.01
-5.24
-4.23
-3.05
-1.77
-0.52
0.56
1.32
1.67
1.66
1.41
1.13
0.97
0.98
1.10
1.20
1.19
1.03
0.83
0.69
0.71
0.87
1.14
1.47
1.83
2.20
2.58
2.93
3.17
3.28
3.25
3.15
3.09
3.20
3.58
4.24
5.07
5.80
6.12
5.72
4.44
2.34
-0.32
-3.19
-5.87
-8.10
-9.69
-10.57
-10.73
-10.17
-8.94
-7.19
-5.16
-3.12
-1.37
-0.08
0.69
1.01
1.04
0.92
0.78
0.70
0.72
0.87
1.16
1.55
1.93
2.16
2.13
1.85
1.46
1.16
1.12
1.37
1.78
2.14
2.28
2.12
1.72
1.21
0.71
0.27
-0.13
-0.50
-0.83
-1.09
-1.25
-1.40
-1.73
-2.48
-3.85
-5.87
-8.35
-10.94
-13.20
-14.74
-15.38
-15.08
-13.97
-12.30
-10.35
-8.36
-6.51
-4.87
-3.42
-2.09
-0.83
0.31
1.24
1.87
2.19
2.26
2.28
2.37
2.62
3.01
3.45
3.87
4.22
4.53
4.85
5.23
5.64
6.03
6.28
6.37
6.29
6.11
5.94
5.81
5.70
5.56
5.31
5.02
4.81
4.81
5.04
5.36
5.50
5.11
4.02
2.23
0.03
-2.19
-4.06
-5.34
-5.97
-6.00
-5.50
-4.54
-3.17
-1.48
0.36
2.11
3.56
4.63
5.39
6.10
7.06
8.46
10.30
12.38
14.33
15.75
16.37
16.06
14.90
13.08
10.82
8.29
5.63
2.99
0.51
-1.61
-3.18
-4.15
-4.56
-4.60
-4.47
-4.35
-4.25
-4.11
-3.79
-3.15
-2.18
-0.95
0.31
1.37
1.98
2.08
1.68
1.00
0.25
-0.31
-0.53
-0.32
0.39
1.63
3.50
5.99
9.02
12.41
15.88
19.18
22.19
24.89
27.37
29.73
32.12
34.66
37.47
40.64
44.19
48.08
52.17
56.33
60.50
64.70
69.08
73.84
79.16
85.14
91.62
98.18
104.12
108.56
110.68
109.92
106.12
99.49
90.47
79.58
67.30
54.07
40.27
26.16
11.87
-2.66
-17.55
-32.75
-47.90
-62.22
-74.65
-84.18
-90.12
-92.27
-90.94
-86.88
-81.11
-74.76
-68.90
-64.37
-61.56
-60.48
-60.74
-61.82
-63.19
-64.44
-65.26
-65.45
-64.89
-63.53
-61.50
-59.00
-56.33
-53.75
-51.38
-49.22
-47.21
-45.28
-43.40
-41.52
-39.56
-37.37
-34.87
-32.05
-29.02
-25.94
-22.92
-19.92
-16.85
-13.64
-10.44
-7.64
-5.72
-5.10
-5.89
-7.83
-10.40
-12.96
-15.01
-16.28
-16.77
-16.64
-16.10
-15.31
-14.31
-13.12
-11.79
-10.42
-9.20
-8.30
-7.76
-7.46
-7.21
-6.84
-6.32
-5.73
-5.23
-4.87
-4.61
-4.27
-3.74
-2.96
-2.02
-1.05
-0.15
0.63
1.36
2.05
2.67
3.14
3.34
3.24
2.90
2.44
2.04
1.83
1.92
2.29
2.82
3.33
3.58
3.34
2.50
1.08
-0.73
-2.67
-4.45
-5.85
-6.73
-7.04
-6.82
-6.16
-5.15
-3.96
-2.70
-1.53
-0.52
0.28
0.86
1.26
1.51
1.66
1.75
1.76
1.70
1.52
1.23
0.83
0.39
0.01
-0.23
-0.21
0.10
0.67
1.43
2.24
2.98
3.50
3.70
3.57
3.15
2.57
2.03
1.70
1.70
1.98
2.36
2.53
2.23
1.28
-0.30
-2.33
-4.50
-6.48
-7.99
-8.87
-9.08
-8.69
-7.85
-6.71
-5.42
-4.08
-2.78
-1.56
-0.47
0.45
1.15
1.63
1.86
1.86
1.64
1.25
0.76
0.29
-0.01
-0.05
0.21
0.73
1.41
2.08
2.63
3.01
3.21
3.23
3.08
2.76
2.25
1.62
0.99
0.50
0.29
0.43
0.85
1.45
2.04
2.44
2.49
2.06
1.07
-0.44
-2.37
-4.51
-6.57
-8.30
-9.45
-9.94
-9.75
-8.99
-7.79
-6.34
-4.79
-3.27
-1.89
-0.70
0.33
1.29
2.26
3.33
4.50
5.71
6.87
7.84
8.53
8.91
9.02
8.96
8.81
8.60
8.31
7.87
7.22
6.37
5.45
4.63
4.04
3.75
3.66
3.61
3.42
3.03
2.50
1.95
1.58
1.49
1.73
2.21
2.75
3.12
3.07
2.45
1.18
-0.68
-2.97
-5.46
-7.84
-9.78
-10.99
-11.29
-10.66
-9.28
-7.47
-5.54
-3.70
-2.06
-0.65
0.54
1.51
2.22
2.73
3.11
3.48
3.90
4.30
4.56
4.56
4.29
3.90
3.64
3.65
3.98
4.48
4.95
5.24
5.31
5.28
5.26
5.31
5.39
5.41
5.31
5.08
4.78
4.47
4.17
3.86
3.52
3.20
2.98
2.99
3.30
3.87
4.52
4.91
4.69
3.63
1.75
-0.69
-3.23
-5.41
-6.93
-7.75
-7.97
-7.78
-7.27
-6.43
-5.21
-3.65
-1.94
-0.36
0.82
1.48
1.69
1.66
1.61
1.70
1.90
2.17
2.41
2.57
2.72
2.93
3.23
3.65
4.11
4.53
4.82
4.97
4.97
4.89
4.80
4.79
4.86
4.97
5.03
4.88
4.49
3.87
3.14
2.46
2.03
1.97
2.34
3.04
3.86
4.45
4.42
3.52
1.73
-0.68
-3.27
-5.61
-7.40
-8.54
-9.07
-9.00
-8.35
-7.10
-5.33
-3.29
-1.32
0.24
1.21
1.62
1.72
1.82
2.16
2.76
3.47
4.01
4.16
3.86
3.25
2.59
2.12
1.96
2.03
2.19
2.32
2.39
2.46
2.65
2.95
3.32
3.65
3.82
3.82
3.68
3.45
3.16
2.81
2.40
1.97
1.64
1.58
1.91
2.58
3.33
3.77
3.45
2.15
-0.06
-2.79
-5.48
-7.61
-8.90
-9.34
-9.08
-8.34
-7.23
-5.80
-4.08
-2.23
-0.49
0.82
1.53
1.62
1.27
0.81
0.50
0.48
0.72
1.08
1.39
1.54
1.54
1.43
1.33
1.34
1.49
1.76
2.12
2.49
2.82
3.10
3.35
3.57
3.73
3.77
3.65
3.33
2.89
2.42
2.04
1.79
1.70
1.74
1.93
2.26
2.65
2.92
2.77
1.99
0.49
-1.57
-3.88
-6.07
-7.86
-9.12
-9.80
-9.91
-9.47
-8.53
-7.17
-5.57
-3.92
-2.44
-1.25
-0.41
0.08
0.28
0.29
0.24
0.29
0.55
1.01
1.58
2.15
2.62
2.98
3.25
3.51
3.81
4.13
4.41
4.61
4.67
4.59
4.42
4.24
4.15
4.20
4.38
4.56
4.58
4.29
3.67
2.83
1.99
1.38
1.18
1.44
2.04
2.73
3.16
2.98
2.00
0.21
-2.15
-4.68
-6.94
-8.65
-9.71
-10.15
-10.07
-9.50
-8.47
-7.01
-5.23
-3.35
-1.64
-0.35
0.41
0.69
0.61
0.35
0.07
-0.17
-0.33
-0.42
-0.44
-0.36
-0.12
0.30
0.91
1.67
2.50
3.31
4.02
4.53
4.82
4.92
4.87
4.75
4.65
4.61
4.64
4.73
4.87
5.06
5.28
5.53
5.80
6.12
6.51
6.98
7.41
7.54
7.08
5.84
3.84
1.43
-0.89
-2.67
-3.64
-3.86
-3.52
-2.90
-2.14
-1.26
-0.23
0.93
2.11
3.11
3.79
4.11
4.16
4.11
4.13
4.29
4.59
4.90
5.09
5.06
4.80
4.36
3.87
3.47
3.33
3.55
4.16
5.09
6.14
7.09
7.76
8.08
8.09
7.87
7.53
7.12
6.68
6.26
6.06
6.26
7.00
8.16
9.40
10.22
10.25
9.52
8.50
7.93
8.42
10.20
12.91
15.85
18.24
19.52
19.55
18.48
16.68
14.55
12.58
11.24
10.95
11.95
14.17
17.17
20.16
22.32
22.98
21.93
19.42
16.12
12.87
10.39
9.06
8.83
9.28
9.85
10.08
9.80
9.11
8.26
7.48
6.94
6.67
6.71
7.03
7.60
8.26
8.73
8.64
7.69
5.78
3.10
0.08
-2.83
-5.30
-7.34
-9.17
-11.14
-13.51
-16.26
-19.16
-21.85
-24.09
-25.72
-26.65
-26.66
-25.39
-22.41
-17.57
-11.18
-4.10
2.60
8.01
11.77
14.12
15.74
17.27
19.07
21.13
23.07
24.45
24.88
24.20
22.45
19.84
16.68
13.25
9.74
6.25
2.79
-0.55
-3.63
-6.27
-8.38
-10.08
-11.68
-13.56
-15.89
-18.59
-21.33
-23.71
-25.54
-26.85
-27.88
-28.88
-29.92
-30.89
-31.52
-31.63
-31.21
-30.45
-29.63
-28.95
-28.49
-28.20
-27.96
-27.70
-27.39
-27.04
-26.59
-25.98
-25.13
-24.04
-22.82
-21.64
-20.61
-19.63
-18.42
-16.61
-13.91
-10.30
-6.02
-1.48
2.97
7.14
11.11
15.10
19.46
24.40
29.95
35.78
41.25
45.51
47.83
47.78
45.52
41.78
37.58
33.99
31.68
30.83
31.11
31.96
32.85
33.58
34.28
35.37
37.28
40.16
43.63
46.77
48.20
46.56
40.95
31.28
18.43
3.96
-10.31
-22.87
-32.87
-40.24
-45.49
-49.36
-52.56
-55.51
-58.35
-60.91
-62.82
-63.58
-62.67
-59.76
-54.85
-48.34
-40.92
-33.45
-26.67
-21.08
-16.92
-14.18
-12.67
-12.10
-12.08
-12.17
-12.02
-11.46
-10.62
-9.81
-9.44
-9.74
-10.63
-11.80
-12.82
-13.42
-13.58
-13.50
-13.39
-13.32
-13.08
-12.28
-10.46
-7.32
-2.78
2.90
9.12
14.93
19.16
20.69
18.80
13.52
5.67
-3.30
-11.84
-18.80
-23.73
-26.80
-28.46
-29.10
-28.86
-27.71
-25.65
-22.91
-20.00
-17.48
-15.81
-15.09
-15.10
-15.39
-15.53
-15.22
-14.41
-13.27
-12.00
-10.78
-9.65
-8.50
-7.22
-5.70
-3.99
-2.23
-0.65
0.52
1.13
1.21
0.93
0.56
0.35
0.44
0.78
1.19
1.37
1.04
0.05
-1.60
-3.73
-6.06
-8.27
-10.04
-11.16
-11.56
-11.31
-10.59
-9.58
-8.42
-7.15
-5.79
-4.36
-3.00
-1.89
-1.22
-1.07
-1.36
-1.94
-2.62
-3.26
-3.84
-4.40
-5.01
-5.66
-6.31
-6.83
-7.10
-7.03
-6.60
-5.89
-5.08
-4.37
-3.94
-3.86
-4.05
-4.29
-4.36
-4.16
-3.76
-3.45
-3.56
-4.27
-5.53
-7.05
-8.43
-9.36
-9.72
-9.60
-9.19
-8.60
-7.84
-6.81
-5.44
-3.81
-2.12
-0.64
0.41
0.99
1.23
1.35
1.57
1.95
2.42
2.80
2.96
2.81
2.41
1.86
1.26
0.68
0.10
-0.48
-1.09
-1.74
-2.41
-3.09
-3.80
-4.57
-5.44
-6.45
-7.67
-9.12
-10.78
-12.60
-14.54
-16.58
-18.79
-21.34
-24.36
-27.83
-31.47
-34.70
-36.78
-37.02
-35.04
-30.89
-25.07
-18.32
-11.40
-4.85
1.02
6.13
10.49
14.08
16.83
18.70
19.77
20.29
20.60
20.98
21.57
22.28
22.93
23.30
23.31
22.98
22.37
21.52
20.45
19.12
17.56
15.84
14.03
12.16
10.19
8.04
5.68
3.20
0.78
-1.43
-3.38
-5.20
-7.21
-9.78
-13.15
-17.36
-22.08
-26.68
-30.29
-32.07
-31.41
-28.13
-22.55
-15.37
-7.46
0.37
7.55
13.71
18.66
22.23
24.39
25.22
25.03
24.32
23.64
23.43
23.83
24.64
25.49
25.96
25.77
24.86
23.41
21.72
20.11
18.79
17.80
16.96
15.97
14.55
12.55
10.05
7.28
4.56
2.08
-0.09
-2.09
-4.12
-6.45
-9.30
-12.82
-17.02
-21.61
-25.98
-29.17
-30.20
-28.35
-23.53
-16.33
-7.83
0.78
8.55
15.03
20.15
24.04
26.82
28.48
29.02
28.51
27.26
25.75
24.51
23.91
24.03
24.63
25.31
25.66
25.44
24.66
23.47
22.09
20.65
19.20
17.69
16.02
14.14
12.01
9.59
6.89
3.96
0.90
-2.18
-5.13
-7.85
-10.33
-12.62
-14.87
-17.37
-20.42
-24.26
-28.86
-33.79
-38.13
-40.73
-40.58
-37.15
-30.67
-21.99
-12.35
-2.90
5.51
12.46
17.87
21.83
24.50
26.05
26.69
26.68
26.30
25.84
25.49
25.36
25.43
25.59
25.70
25.64
25.37
24.91
24.34
23.69
22.89
21.86
20.51
18.86
17.00
15.05
13.03
10.86
8.41
5.55
2.36
-0.94
-4.04
-6.70
-8.87
-10.66
-12.34
-14.26
-16.71
-19.92
-23.93
-28.56
-33.24
-37.09
-39.07
-38.30
-34.36
-27.50
-18.58
-8.84
0.51
8.58
14.93
19.57
22.75
24.79
26.03
26.71
27.04
27.16
27.21
27.22
27.15
26.91
26.41
25.65
24.71
23.76
22.98
22.42
21.99
21.48
20.63
19.31
17.55
15.50
13.37
11.31
9.38
7.45
5.37
2.97
0.19
-2.85
-5.91
-8.68
-10.94
-12.63
-13.93
-15.21
-16.85
-19.17
-22.24
-25.87
-29.59
-32.64
-34.19
-33.51
-30.27
-24.62
-17.24
-9.13
-1.26
5.65
11.30
15.67
18.95
21.30
22.84
23.68
23.97
23.92
23.75
23.64
23.57
23.43
23.04
22.29
21.24
20.11
19.22
18.77
18.72
18.77
18.48
17.52
15.78
13.51
11.07
8.85
7.00
5.45
3.98
2.36
0.47
-1.70
-4.02
-6.32
-8.44
-10.26
-11.73
-12.87
-13.82
-14.78
-16.03
-17.85
-20.38
-23.53
-26.89
-29.77
-31.34
-30.88
-28.05
-23.00
-16.39
-9.18
-2.28
3.66
8.37
11.94
14.63
16.63
18.02
18.78
18.90
18.48
17.82
17.27
17.08
17.25
17.53
17.58
17.12
16.14
14.87
13.66
12.75
12.23
11.93
11.59
11.02
10.17
9.12
8.01
6.93
5.85
4.65
3.24
1.63
-0.07
-1.70
-3.16
-4.44
-5.65
-6.88
-8.11
-9.25
-10.19
-10.93
-11.70
-12.87
-14.81
-17.61
-20.94
-24.10
-26.25
-26.66
-25.02
-21.49
-16.63
-11.13
-5.66
-0.64
3.71
7.31
10.11
12.06
13.16
13.52
13.37
13.05
12.90
13.12
13.71
14.51
15.22
15.64
15.67
15.43
15.09
14.85
14.72
14.63
14.40
13.88
13.06
12.02
10.93
9.94
9.09
8.38
7.67
6.84
5.73
4.23
2.30
0.02
-2.42
-4.73
-6.70
-8.25
-9.58
-11.03
-12.97
-15.62
-18.87
-22.31
-25.27
-27.07
-27.18
-25.40
-21.94
-17.31
-12.17
-7.16
-2.74
0.85
3.58
5.51
6.73
7.30
7.25
6.70
5.81
4.78
3.82
3.08
2.60
2.32
2.15
2.03
1.91
1.84
1.82
1.84
1.80
1.62
1.28
0.80
0.34
0.04
-0.01
0.14
0.34
0.42
0.26
-0.18
-0.78
-1.42
-1.92
-2.22
-2.32
-2.31
-2.40
-2.83
-3.83
-5.51
-7.84
-10.54
-13.15
-15.14
-16.04
-15.60
-13.87
-11.17
-7.97
-4.73
-1.76
0.83
3.08
5.05
6.81
8.30
9.43
10.16
10.49
10.54
10.45
10.33
10.25
10.17
10.04
9.84
9.59
9.32
9.08
8.83
8.54
8.14
7.58
6.83
5.93
4.90
3.77
2.61
1.48
0.41
-0.57
-1.45
-2.19
-2.77
-3.17
-3.46
-3.80
-4.48
-5.79
-7.89
-10.66
-13.71
-16.41
-18.12
-18.36
-17.01
-14.28
-10.65
-6.70
-2.89
0.49
3.38
5.86
8.00
9.79
11.11
11.84
11.91
11.44
10.65
9.79
9.06
8.48
7.97
7.36
6.55
5.58
4.60
3.78
3.24
2.97
2.84
2.61
2.10
1.20
-0.04
-1.46
-2.86
-4.04
-4.91
-5.47
-5.75
-5.89
-6.06
-6.51
-7.52
-9.31
-11.94
-15.12
-18.34
-20.91
-22.21
-21.88
-19.95
-16.74
-12.70
-8.30
-3.93
0.10
3.48
5.95
7.37
7.81
7.57
7.11
6.89
7.15
7.87
8.77
9.50
9.76
9.44
8.66
7.64
6.62
5.76
5.12
4.63
4.20
3.71
3.07
2.27
1.32
0.27
-0.78
-1.72
-2.42
-2.78
-2.76
-2.50
-2.26
-2.44
-3.37
-5.20
-7.81
-10.80
-13.58
-15.56
-16.30
-15.60
-13.56
-10.53
-6.96
-3.33
0.00
2.81
5.02
6.66
7.82
8.61
9.10
9.34
9.37
9.25
9.00
8.68
8.30
7.83
7.22
6.42
5.48
4.50
3.64
3.05
2.75
2.60
2.40
1.90
1.02
-0.13
-1.35
-2.36
-3.02
-3.34
-3.49
-3.71
-4.25
-5.27
-6.78
-8.70
-10.80
-12.74
-14.11
-14.56
-13.83
-11.87
-8.85
-5.13
-1.19
2.48
5.47
7.57
8.75
9.19
9.18
9.01
8.90
8.93
9.03
9.07
8.91
8.46
7.74
6.87
5.97
5.16
4.47
3.85
3.18
2.37
1.36
0.24
-0.88
-1.88
-2.65
-3.14
-3.37
-3.42
-3.44
-3.69
-4.43
-5.87
-8.03
-10.69
-13.39
-15.59
-16.77
-16.63
-15.12
-12.42
-8.90
-5.00
-1.15
2.30
5.10
7.15
8.46
9.13
9.32
9.22
8.99
8.79
8.69
8.69
8.70
8.61
8.28
7.64
6.69
5.54
4.34
3.29
2.48
1.90
1.41
0.81
-0.09
-1.33
-2.84
-4.40
-5.77
-6.79
-7.40
-7.70
-7.92
-8.35
-9.34
-11.13
-13.79
-17.12
-20.59
-23.47
-25.03
-24.74
-22.45
-18.44
-13.29
-7.72
-2.38
2.28
6.06
8.92
10.96
12.29
13.02
13.27
13.16
12.84
12.43
12.01
11.59
11.14
10.60
9.94
9.14
8.25
7.32
6.42
5.59
4.86
4.25
3.71
3.16
2.47
1.54
0.38
-0.92
-2.14
-3.11
-3.71
-3.99
-4.17
-4.54
-5.44
-7.05
-9.44
-12.36
-15.37
-17.83
-19.12
-18.75
-16.58
-12.88
-8.22
-3.30
1.30
5.18
8.21
10.40
11.82
12.59
12.81
12.65
12.27
11.84
11.48
11.17
10.82
10.32
9.64
8.82
7.98
7.19
6.52
5.93
5.36
4.79
4.24
3.74
3.32
2.94
2.48
1.81
0.86
-0.34
-1.60
-2.72
-3.48
-3.81
-3.75
-3.50
-3.35
-3.63
-4.61
-6.41
-8.95
-11.86
-14.61
-16.58
-17.23
-16.31
-13.91
-10.40
-6.32
-2.20
1.56
4.73
7.23
9.07
10.32
11.09
11.47
11.58
11.51
11.33
11.04
10.61
10.05
9.40
8.74
8.15
7.66
7.20
6.70
6.09
5.35
4.53
3.73
3.01
2.39
1.84
1.32
0.75
0.08
-0.74
-1.74
-2.88
-4.01
-4.88
-5.31
-5.22
-4.80
-4.42
-4.53
-5.49
-7.36
-9.85
-12.41
-14.35
-15.07
-14.23
-11.91
-8.53
-4.74
-1.16
1.77
3.90
5.33
6.30
6.99
7.54
7.98
8.28
8.47
8.58
8.62
8.57
8.36
7.90
7.20
6.35
5.56
5.03
4.87
5.06
5.40
5.67
5.65
5.30
4.69
3.99
3.37
2.90
2.57
2.23
1.80
1.22
0.56
-0.05
-0.46
-0.58
-0.44
-0.26
-0.37
-1.12
-2.73
-5.15
-8.02
-10.80
-12.92
-13.97
-13.84
-12.71
-10.90
-8.77
-6.55
-4.36
-2.21
-0.16
1.69
3.19
4.21
4.71
4.78
4.61
4.40
4.27
4.27
4.32
4.31
4.13
3.75
3.15
2.40
1.60
0.85
0.24
-0.15
-0.30
-0.23
-0.01
0.24
0.42
0.44
0.29
0.01
-0.27
-0.42
-0.37
-0.16
0.03
-0.09
-0.78
-2.14
-4.08
-6.33
-8.49
-10.23
-11.27
-11.48
-10.84
-9.43
-7.40
-4.99
-2.50
-0.24
1.56
2.83
3.63
4.12
4.45
4.72
4.95
5.11
5.14
4.99
4.62
4.02
3.19
2.25
1.36
0.74
0.55
0.84
1.44
2.03
2.29
1.99
1.13
-0.07
-1.26
-2.12
-2.45
-2.22
-1.58
-0.74
0.03
0.48
0.38
-0.44
-2.04
-4.30
-6.87
-9.24
-10.89
-11.47
-10.95
-9.56
-7.72
-5.79
-3.93
-2.14
-0.36
1.39
2.95
4.07
4.59
4.54
4.15
3.68
3.34
3.13
2.93
2.62
2.17
1.66
1.25
1.09
1.22
1.56
1.95
2.22
2.23
1.90
1.22
0.28
-0.78
-1.78
-2.50
-2.81
-2.68
-2.26
-1.80
-1.66
-2.14
-3.39
-5.35
-7.78
-10.30
-12.49
-13.96
-14.46
-13.89
-12.32
-9.99
-7.25
-4.45
-1.88
0.28
1.98
3.24
4.11
4.63
4.88
4.92
4.85
4.77
4.72
4.69
4.61
4.37
3.94
3.34
2.64
1.95
1.34
0.86
0.49
0.18
-0.11
-0.43
-0.81
-1.23
-1.66
-2.00
-2.15
-2.01
-1.55
-0.92
-0.37
-0.25
-0.83
-2.22
-4.26
-6.65
-8.95
-10.80
-11.95
-12.32
-11.94
-10.89
-9.25
-7.12
-4.62
-1.97
0.57
2.74
4.31
5.16
5.33
5.01
4.46
3.96
3.69
3.70
3.90
4.11
4.19
4.06
3.77
3.44
3.18
3.02
2.90
2.63
2.08
1.22
0.19
-0.79
-1.51
-1.88
-1.97
-2.00
-2.23
-2.91
-4.13
-5.91
-8.09
-10.41
-12.52
-14.02
-14.59
-14.04
-12.42
-10.02
-7.21
-4.39
-1.81
0.46
2.39
4.01
5.30
6.21
6.76
7.03
7.18
7.31
7.45
7.48
7.25
6.63
5.64
4.42
3.19
2.16
1.45
1.02
0.74
0.37
-0.26
-1.27
-2.63
-4.14
-5.54
-6.52
-6.87
-6.59
-5.87
-5.11
-4.82
-5.43
-7.24
-10.14
-13.68
-17.06
-19.35
-19.84
-18.27
-14.93
-10.50
-5.81
-1.52
2.05
4.85
6.97
8.50
9.41
9.68
9.39
8.76
8.11
7.71
7.65
7.84
8.07
8.14
7.91
7.38
6.58
5.61
4.56
3.50
2.49
1.55
0.66
-0.29
-1.41
-2.76
-4.31
-5.89
-7.23
-8.09
-8.41
-8.41
-8.52
-9.29
-11.11
-14.03
-17.63
-21.13
-23.64
-24.39
-23.07
-19.82
-15.20
-9.89
-4.54
0.40
4.69
8.22
10.91
12.72
13.64
13.75
13.25
12.41
11.55
10.87
10.47
10.29
10.18
9.98
9.62
9.09
8.47
7.80
7.12
6.42
5.70
4.95
4.15
3.27
2.15
0.72
-1.06
-3.04
-4.93
-6.41
-7.32
-7.71
-7.85
-8.17
-9.11
-10.94
-13.73
-17.20
-20.84
-23.87
-25.55
-25.33
-23.06
-19.03
-13.88
-8.36
-3.09
1.55
5.44
8.58
10.99
12.70
13.73
14.20
14.28
14.20
14.14
14.14
14.15
14.04
13.72
13.18
12.51
11.82
11.24
10.79
10.41
10.00
9.45
8.77
8.00
7.26
6.61
6.00
5.31
4.37
3.09
1.52
-0.18
-1.77
-3.10
-4.15
-5.07
-6.12
-7.61
-9.78
-12.76
-16.42
-20.29
-23.66
-25.67
-25.60
-23.16
-18.60
-12.71
-6.46
-0.67
4.19
8.06
11.12
13.52
15.28
16.28
16.43
15.83
14.79
13.73
12.99
12.67
12.63
12.57
12.21
11.45
10.39
9.25
8.21
7.37
6.71
6.10
5.45
4.74
3.98
3.15
2.23
1.13
-0.19
-1.70
-3.22
-4.51
-5.37
-5.79
-5.95
-6.24
-7.07
-8.68
-11.05
-13.85
-16.45
-18.17
-18.43
-16.96
-13.84
-9.52
-4.62
0.18
4.36
7.63
9.96
11.45
12.28
12.61
12.54
12.25
11.87
11.61
11.53
11.55
11.46
10.97
9.88
8.23
6.32
4.55
3.24
2.51
2.18
1.88
1.25
0.08
-1.60
-3.55
-5.43
-6.91
-7.85
-8.29
-8.48
-8.79
-9.56
-11.04
-13.16
-15.63
-17.90
-19.31
-19.33
-17.66
-14.39
-9.94
-4.94
-0.02
4.35
7.91
10.64
12.56
13.74
14.22
14.08
13.45
12.55
11.62
10.80
10.12
9.46
8.67
7.63
6.36
4.98
3.68
2.64
1.97
1.61
1.33
0.83
-0.20
-1.87
-4.06
-6.43
-8.52
-10.01
-10.78
-11.05
-11.24
-11.84
-13.25
-15.64
-18.86
-22.41
-25.51
-27.23
-26.77
-23.77
-18.44
-11.59
-4.31
2.36
7.79
11.83
14.71
16.76
18.16
18.96
19.09
18.58
17.65
16.60
15.74
15.18
14.83
14.46
13.80
12.74
11.37
9.89
8.59
7.65
7.06
6.61
5.98
4.89
3.15
0.85
-1.77
-4.33
-6.47
-7.99
-8.91
-9.45
-9.99
-10.96
-12.72
-15.49
-19.24
-23.55
-27.69
-30.66
-31.51
-29.64
-25.03
-18.28
-10.43
-2.57
4.43
10.15
14.55
17.79
20.04
21.44
22.06
22.02
21.50
20.74
19.97
19.30
18.77
18.30
17.75
17.01
16.02
14.81
13.46
12.09
10.81
9.68
8.68
7.75
6.79
5.69
4.39
2.83
1.04
-0.93
-2.97
-4.92
-6.66
-8.09
-9.22
-10.16
-11.12
-12.36
-14.18
-16.79
-20.13
-23.77
-26.93
-28.59
-27.85
-24.29
-18.16
-10.38
-2.17
5.30
11.30
15.63
18.49
20.24
21.19
21.56
21.51
21.21
20.88
20.72
20.81
21.08
21.30
21.22
20.68
19.66
18.31
16.85
15.43
14.07
12.67
11.06
9.14
6.98
4.76
2.71
0.99
-0.39
-1.59
-2.86
-4.41
-6.31
-8.48
-10.72
-12.80
-14.48
-15.64
-16.21
-16.33
-16.25
-16.37
-17.15
-18.91
-21.71
-25.19
-28.59
-30.88
-31.16
-28.94
-24.32
-18.02
-11.07
-4.52
0.95
5.10
8.06
10.15
11.63
12.62
13.18
13.33
13.18
12.88
12.56
12.26
11.93
11.50
10.97
10.38
9.81
9.30
8.83
8.31
7.68
6.92
6.06
5.18
4.32
3.50
2.67
1.80
0.83
-0.28
-1.54
-2.93
-4.42
-5.89
-7.24
-8.39
-9.33
-10.17
-11.13
-12.52
-14.54
-17.15
-20.01
-22.47
-23.78
-23.31
-20.83
-16.57
-11.14
-5.35
0.09
4.66
8.16
10.55
11.93
12.46
12.33
11.79
11.10
10.50
10.16
10.10
10.25
10.48
10.65
10.69
10.53
10.15
9.52
8.61
7.47
6.18
4.84
3.56
2.36
1.21
0.01
-1.30
-2.71
-4.20
-5.69
-7.09
-8.39
-9.55
-10.55
-11.38
-12.08
-12.77
-13.66
-15.06
-17.15
-19.92
-22.97
-25.54
-26.72
-25.77
-22.38
-16.93
-10.28
-3.51
2.47
7.22
10.74
13.27
15.08
16.28
16.82
16.68
15.96
14.93
13.90
13.12
12.70
12.52
12.44
12.26
11.85
11.13
10.09
8.79
7.39
6.06
4.93
4.05
3.31
2.53
1.54
0.24
-1.34
-3.09
-4.82
-6.41
-7.78
-8.93
-9.90
-10.80
-11.76
-12.97
-14.66
-16.96
-19.82
-22.87
-25.46
-26.79
-26.16
-23.27
-18.32
-11.98
-5.16
1.31
6.83
11.15
14.24
16.26
17.39
17.81
17.74
17.35
16.89
16.50
16.28
16.20
16.13
15.93
15.47
14.75
13.84
12.90
12.03
11.24
10.39
9.36
8.07
6.60
5.13
3.83
2.80
1.95
1.07
-0.06
-1.59
-3.48
-5.56
-7.56
-9.23
-10.43
-11.17
-11.68
-12.28
-13.33
-15.07
-17.52
-20.37
-23.08
-24.94
-25.30
-23.73
-20.20
-15.07
-8.99
-2.70
3.13
8.06
11.88
14.58
16.19
16.82
16.61
15.78
14.64
13.54
12.75
12.34
12.17
11.95
11.39
10.32
8.90
7.45
6.36
5.87
5.93
6.22
6.33
5.91
4.87
3.36
1.67
0.17
-0.75
-0.81
0.19
2.22
5.04
8.21
11.18
13.60
15.35
16.61
17.65
18.54
19.09
18.77
17.04
13.62
8.80
3.40
-1.43
-4.64
-5.60
-4.31
-1.37
2.32
5.90
8.79
10.80
12.05
12.77
13.16
13.30
13.20
12.84
12.28
11.62
10.98
10.46
10.06
9.71
9.26
8.54
7.44
5.85
3.72
1.08
-1.97
-5.23
-8.41
-11.20
-13.35
-14.74
-15.43
-15.65
-15.68
-15.86
-16.40
-17.36
-18.64
-20.02
-21.24
-22.13
-22.66
-23.03
-23.58
-24.63
-26.34
-28.57
-30.86
-32.56
-33.01
-31.76
-28.67
-24.00
-18.23
-11.99
-5.88
-0.40
4.14
7.59
9.93
11.31
11.92
11.99
11.70
11.19
10.56
9.91
9.32
8.86
8.59
8.45
8.37
8.22
7.89
7.35
6.62
5.76
4.86
3.99
3.24
2.62
2.11
1.63
1.05
0.30
-0.64
-1.65
-2.58
-3.33
-3.90
-4.44
-5.22
-6.53
-8.50
-11.11
-14.03
-16.68
-18.39
-18.54
-16.82
-13.27
-8.31
-2.62
3.11
8.35
12.76
16.22
18.71
20.28
21.07
21.25
21.08
20.80
20.51
20.12
19.44
18.26
16.52
14.40
12.21
10.25
8.65
7.35
6.13
4.82
3.39
2.01
0.87
0.09
-0.41
-0.89
-1.64
-2.85
-4.48
-6.32
-8.09
-9.54
-10.59
-11.28
-11.68
-11.85
-11.76
-11.40
-10.88
-10.49
-10.64
-11.73
-13.86
-16.68
-19.44
-21.18
-21.13
-18.92
-14.82
-9.52
-3.91
1.28
5.62
9.04
11.66
13.62
14.99
15.78
16.04
15.89
15.56
15.29
15.18
15.12
14.84
14.02
12.49
10.36
7.96
5.72
3.93
2.58
1.44
0.09
-1.76
-4.18
-6.99
-9.80
-12.26
-14.18
-15.61
-16.77
-17.95
-19.33
-20.96
-22.77
-24.54
-26.05
-27.09
-27.55
-27.46
-26.98
-26.41
-26.05
-26.16
-26.76
-27.59
-28.18
-27.97
-26.45
-23.41
-19.00
-13.67
-8.06
-2.79
1.71
5.25
7.83
9.60
10.71
11.32
11.55
11.51
11.35
11.15
10.99
10.86
10.75
10.60
10.37
10.01
9.52
8.89
8.13
7.30
6.46
5.66
4.91
4.16
3.32
2.31
1.09
-0.25
-1.60
-2.78
-3.68
-4.26
-4.57
-4.74
-4.99
-5.57
-6.73
-8.57
-11.01
-13.66
-15.92
-17.09
-16.69
-14.58
-11.04
-6.70
-2.26
1.75
5.12
7.87
10.13
11.96
13.28
13.98
14.00
13.49
12.75
12.10
11.72
11.57
11.47
11.20
10.61
9.70
8.60
7.46
6.42
5.52
4.74
3.94
2.97
1.69
0.04
-1.92
-4.03
-6.06
-7.78
-9.04
-9.86
-10.38
-10.84
-11.61
-12.96
-15.02
-17.63
-20.37
-22.56
-23.54
-22.75
-20.04
-15.63
-10.10
-4.20
1.35
6.04
9.66
12.24
13.96
15.02
15.56
15.65
15.38
14.86
14.25
13.73
13.40
13.26
13.20
13.06
12.71
12.12
11.36
10.51
9.64
8.71
7.66
6.46
5.16
3.86
2.65
1.52
0.35
-0.96
-2.48
-4.11
-5.65
-6.90
-7.83
-8.60
-9.54
-10.94
-13.03
-15.75
-18.85
-21.86
-24.22
-25.36
-24.81
-22.37
-18.18
-12.67
-6.58
-0.63
4.58
8.74
11.80
13.90
15.22
15.93
16.15
16.02
15.69
15.28
14.86
14.39
13.84
13.19
12.47
11.78
11.16
10.61
10.06
9.43
8.73
8.02
7.38
6.83
6.28
5.56
4.50
3.06
1.35
-0.40
-2.01
-3.34
-4.41
-5.33
-6.24
-7.28
-8.60
-10.30
-12.43
-14.91
-17.42
-19.44
-20.37
-19.72
-17.29
-13.31
-8.34
-3.10
1.79
5.93
9.15
11.50
13.09
14.00
14.29
14.02
13.28
12.25
11.16
10.20
9.49
9.02
8.70
8.41
8.07
7.70
7.33
7.01
6.71
6.29
5.61
4.53
3.03
1.18
-0.86
-2.89
-4.72
-6.21
-7.29
-8.06
-8.76
-9.74
-11.33
-13.67
-16.52
-19.28
-21.12
-21.25
-19.31
-15.45
-10.27
-4.59
0.86
5.65
9.65
12.88
15.35
16.99
17.63
17.26
16.03
14.36
12.73
11.53
10.88
10.61
10.36
9.79
8.78
7.43
6.02
4.81
3.90
3.18
2.41
1.37
-0.04
-1.78
-3.72
-5.72
-7.68
-9.49
-11.07
-12.32
-13.23
-13.92
-14.68
-15.87
-17.85
-20.76
-24.42
-28.22
-31.27
-32.56
-31.35
-27.43
-21.22
-13.68
-5.90
1.19
7.11
11.79
15.37
17.98
19.63
20.28
19.96
18.90
17.47
16.09
15.06
14.51
14.37
14.46
14.57
14.48
14.04
13.22
12.05
10.69
9.28
7.91
6.62
5.36
4.09
2.75
1.30
-0.33
-2.17
-4.22
-6.44
-8.68
-10.76
-12.53
-14.02
-15.43
-17.13
-19.49
-22.68
-26.45
-30.14
-32.78
-33.40
-31.39
-26.75
-20.07
-12.32
-4.55
2.49
8.43
13.24
17.02
19.85
21.68
22.48
22.31
21.44
20.32
19.40
18.94
18.96
19.20
19.29
18.94
18.09
16.94
15.81
14.98
14.49
14.17
13.67
12.67
11.03
8.86
6.49
4.29
2.50
1.08
-0.19
-1.63
-3.41
-5.53
-7.78
-9.90
-11.71
-13.20
-14.45
-15.65
-16.94
-18.49
-20.47
-22.99
-26.04
-29.27
-31.98
-33.24
-32.26
-28.68
-22.78
-15.40
-7.63
-0.39
5.75
10.67
14.49
17.37
19.40
20.60
20.98
20.66
19.89
18.93
18.08
17.50
17.27
17.35
17.60
17.83
17.87
17.64
17.18
16.61
16.04
15.52
14.99
14.33
13.39
12.12
10.56
8.87
7.24
5.85
4.74
3.82
2.85
1.55
-0.23
-2.47
-4.90
-7.18
-9.01
-10.28
-11.11
-11.77
-12.53
-13.60
-15.10
-17.07
-19.50
-22.16
-24.62
-26.21
-26.23
-24.17
-20.01
-14.26
-7.78
-1.50
3.90
8.15
11.31
13.60
15.17
16.10
16.37
16.04
15.32
14.51
13.87
13.56
13.55
13.65
13.68
13.49
13.01
12.34
11.59
10.95
10.50
10.20
9.88
9.29
8.20
6.57
4.57
2.55
0.86
-0.37
-1.22
-2.00
-3.06
-4.58
-6.50
-8.54
-10.37
-11.71
-12.51
-12.93
-13.30
-14.03
-15.42
-17.58
-20.38
-23.40
-26.00
-27.47
-27.24
-24.99
-20.82
-15.21
-8.87
-2.60
2.99
7.54
10.94
13.26
14.63
15.20
15.14
14.64
13.93
13.26
12.83
12.73
12.90
13.17
13.34
13.25
12.86
12.27
11.67
11.22
10.97
10.80
10.48
9.79
8.60
7.00
5.26
3.64
2.30
1.18
0.06
-1.33
-3.15
-5.33
-7.64
-9.73
-11.35
-12.40
-12.97
-13.25
-13.56
-14.23
-15.59
-17.83
-20.87
-24.23
-27.10
-28.54
-27.80
-24.65
-19.48
-13.13
-6.56
-0.53
4.57
8.67
11.86
14.22
15.78
16.53
16.51
15.90
14.98
14.04
13.26
12.72
12.32
11.90
11.36
10.71
10.08
9.67
9.56
9.68
9.79
9.57
8.79
7.44
5.71
3.92
2.36
1.17
0.30
-0.40
-1.17
-2.18
-3.50
-5.08
-6.75
-8.29
-9.48
-10.23
-10.60
-10.85
-11.33
-12.42
-14.29
-16.81
-19.53
-21.74
-22.67
-21.75
-18.83
-14.21
-8.59
-2.81
2.41
6.61
9.68
11.74
13.02
13.67
13.79
13.46
12.77
11.88
10.99
10.22
9.63
9.20
8.84
8.50
8.17
7.84
7.48
7.04
6.47
5.80
5.09
4.39
3.70
2.92
1.93
0.65
-0.84
-2.39
-3.79
-4.94
-5.88
-6.72
-7.57
-8.47
-9.37
-10.31
-11.41
-12.87
-14.86
-17.27
-19.68
-21.40
-21.72
-20.19
-16.86
-12.18
-6.93
-1.80
2.72
6.46
9.44
11.74
13.35
14.22
14.28
13.60
12.44
11.15
10.08
9.41
9.11
9.03
9.00
8.90
8.71
8.39
7.91
7.18
6.11
4.73
3.20
1.75
0.60
-0.19
-0.77
-1.42
-2.42
-3.89
-5.76
-7.81
-9.74
-11.34
-12.48
-13.21
-13.71
-14.30
-15.35
-17.19
-19.92
-23.26
-26.52
-28.79
-29.23
-27.39
-23.37
-17.74
-11.33
-4.90
1.02
6.12
10.25
13.34
15.36
16.37
16.54
16.17
15.61
15.09
14.73
14.50
14.27
13.92
13.39
12.71
11.97
11.25
10.60
9.98
9.32
8.49
7.46
6.27
5.01
3.79
2.65
1.53
0.30
-1.18
-2.98
-5.01
-7.09
-9.00
-10.57
-11.72
-12.53
-13.19
-13.97
-15.17
-16.99
-19.53
-22.65
-25.94
-28.71
-30.16
-29.60
-26.69
-21.61
-15.02
-7.83
-0.92
5.13
10.02
13.76
16.41
18.07
18.78
18.67
17.99
17.11
16.38
16.02
16.01
16.12
16.09
15.69
14.92
13.92
12.91
12.06
11.44
10.99
10.57
10.03
9.26
8.22
6.94
5.53
4.16
2.89
1.74
0.56
-0.80
-2.49
-4.48
-6.63
-8.69
-10.43
-11.73
-12.57
-13.11
-13.62
-14.47
-15.98
-18.37
-21.50
-24.83
-27.52
-28.62
-27.46
-23.90
-18.38
-11.75
-4.98
1.14
6.19
10.01
12.73
14.52
15.57
16.05
16.11
15.88
15.45
14.94
14.41
13.92
13.47
13.03
12.59
12.11
11.63
11.22
10.94
10.77
10.62
10.33
9.74
8.80
7.57
6.22
4.89
3.68
2.57
1.44
0.19
-1.26
-2.88
-4.55
-6.09
-7.28
-7.99
-8.24
-8.20
-8.25
-8.82
-10.26
-12.67
-15.76
-18.87
-21.15
-21.78
-20.33
-16.85
-11.88
-6.20
-0.63
4.26
8.19
11.11
13.08
14.18
14.49
14.14
13.37
12.48
11.75
11.34
11.19
11.15
11.00
10.67
10.23
9.80
9.52
9.36
9.20
8.87
8.26
7.40
6.36
5.25
4.07
2.77
1.31
-0.35
-2.14
-3.99
-5.78
-7.49
-9.08
-10.56
-11.91
-13.08
-14.10
-15.08
-16.24
-17.85
-20.06
-22.74
-25.41
-27.31
-27.56
-25.57
-21.20
-14.92
-7.64
-0.41
5.94
10.93
14.52
16.89
18.27
18.82
18.62
17.78
16.49
15.06
13.79
12.82
12.12
11.50
10.77
9.82
8.70
7.55
6.49
5.57
4.72
3.83
2.79
1.63
0.43
-0.68
-1.61
-2.37
-3.04
-3.74
-4.57
-5.53
-6.54
-7.46
-8.14
-8.51
-8.60
-8.56
-8.60
-9.02
-10.05
-11.76
-14.00
-16.29
-18.00
-18.50
-17.35
-14.49
-10.28
-5.30
-0.23
4.38
8.22
11.19
13.30
14.62
15.18
15.00
14.14
12.74
11.00
9.20
7.59
6.31
5.38
4.70
4.09
3.45
2.71
1.91
1.11
0.40
-0.21
-0.72
-1.19
-1.72
-2.36
-3.16
-4.11
-5.13
-6.12
-6.99
-7.67
-8.13
-8.40
-8.51
-8.58
-8.77
-9.34
-10.53
-12.45
-14.94
-17.53
-19.51
-20.12
-18.88
-15.68
-10.92
-5.29
0.41
5.47
9.46
12.23
13.84
14.49
14.42
13.83
12.96
11.97
11.03
10.24
9.60
9.05
8.43
7.64
6.64
5.53
4.49
3.71
3.24
2.99
2.73
2.20
1.24
-0.14
-1.78
-3.40
-4.76
-5.76
-6.43
-6.98
-7.66
-8.71
-10.34
-12.66
-15.65
-19.06
-22.38
-24.88
-25.76
-24.44
-20.81
-15.32
-8.83
-2.27
3.56
8.30
11.89
14.50
16.30
17.40
17.84
17.66
16.95
15.88
14.65
13.43
12.36
11.48
10.76
10.12
9.46
8.66
7.69
6.59
5.43
4.30
3.22
2.17
1.08
-0.11
-1.46
-2.96
-4.56
-6.16
-7.67
-8.99
-10.08
-11.00
-11.86
-12.87
-14.24
-16.20
-18.86
-22.14
-25.70
-28.89
-30.87
-30.80
-28.22
-23.18
-16.38
-8.82
-1.57
4.63
9.52
13.19
15.92
17.88
19.17
19.78
19.80
19.42
18.87
18.36
17.94
17.52
16.99
16.29
15.49
14.75
14.18
13.76
13.34
12.71
11.71
10.33
8.68
6.97
5.36
3.93
2.61
1.28
-0.22
-1.98
-3.96
-6.05
-8.05
-9.78
-11.11
-12.03
-12.67
-13.31
-14.31
-16.05
-18.74
-22.23
-25.97
-29.01
-30.33
-29.19
-25.43
-19.57
-12.57
-5.51
0.86
6.18
10.48
13.89
16.48
18.22
19.03
19.01
18.45
17.75
17.27
17.13
17.23
17.29
17.07
16.47
15.60
14.63
13.78
13.13
12.61
12.06
11.30
10.19
8.74
7.08
5.43
3.97
2.80
1.83
0.89
-0.23
-1.64
-3.26
-4.91
-6.36
-7.48
-8.24
-8.70
-8.99
-9.25
-9.73
-10.76
-12.63
-15.43
-18.87
-22.21
-24.47
-24.77
-22.65
-18.32
-12.55
-6.35
-0.59
4.17
7.75
10.24
11.85
12.78
13.19
13.22
13.01
12.69
12.37
12.08
11.82
11.53
11.16
10.71
10.18
9.67
9.24
8.90
8.67
8.46
8.14
7.61
6.80
5.69
4.35
2.90
1.49
0.21
-0.95
-2.04
-3.17
-4.40
-5.68
-6.85
-7.75
-8.31
-8.61
-8.92
-9.58
-10.90
-12.98
-15.68
-18.54
-20.89
-22.03
-21.40
-18.84
-14.65
-9.50
-4.24
0.43
4.15
6.88
8.83
10.20
11.07
11.45
11.30
10.73
9.96
9.21
8.59
8.04
7.42
6.65
5.80
5.13
4.88
5.16
5.75
6.22
6.11
5.11
3.28
1.07
-0.78
-1.47
-0.40
2.60
7.18
12.55
17.75
21.94
24.73
26.27
27.17
28.18
29.92
32.62
36.02
39.47
42.14
43.24
42.29
39.23
34.46
28.77
23.06
18.16
14.66
12.79
12.44
13.23
14.55
15.75
16.22
15.60
13.81
11.05
7.63
3.89
-0.00
-4.03
-8.31
-13.01
-18.18
-23.67
-29.05
-33.69
-36.95
-38.40
-38.03
-36.33
-34.03
-31.84
-30.03
-28.44
-26.60
-24.09
-20.84
-17.15
-13.55
-10.40
-7.80
-5.50
-3.14
-0.46
2.63
6.03
9.58
13.14
16.62
19.87
22.63
24.54
25.28
24.67
22.82
20.12
17.14
14.41
12.28
10.81
9.86
9.19
8.64
8.16
7.77
7.49
7.27
6.97
6.47
5.76
4.91
4.06
3.27
2.53
1.69
0.60
-0.82
-2.49
-4.23
-5.85
-7.23
-8.32
-9.10
-9.63
-9.96
-10.13
-10.23
-10.38
-10.70
-11.29
-12.20
-13.47
-15.01
-16.67
-18.21
-19.41
-20.10
-20.26
-20.09
-19.96
-20.28
-21.33
-23.17
-25.61
-28.28
-30.76
-32.67
-33.75
-33.88
-33.06
-31.35
-28.92
-25.92
-22.59
-19.11
-15.68
-12.45
-9.57
-7.11
-5.13
-3.63
-2.58
-1.94
-1.64
-1.62
-1.76
-1.88
-1.82
-1.44
-0.77
0.01
0.65
0.91
0.74
0.24
-0.37
-0.90
-1.27
-1.55
-1.86
-2.32
-2.97
-3.81
-4.77
-5.81
-6.86
-7.90
-8.88
-9.79
-10.69
-11.71
-13.06
-14.95
-17.45
-20.44
-23.52
-26.10
-27.53
-27.32
-25.27
-21.56
-16.70
-11.39
-6.24
-1.72
2.00
4.90
7.08
8.63
9.62
10.13
10.22
10.03
9.68
9.30
8.95
8.67
8.47
8.34
8.27
8.19
8.06
7.83
7.48
7.00
6.41
5.73
4.95
4.10
3.19
2.27
1.36
0.46
-0.49
-1.55
-2.72
-3.89
-4.90
-5.58
-5.94
-6.21
-6.79
-8.11
-10.39
-13.49
-16.86
-19.74
-21.31
-21.04
-18.81
-14.96
-10.11
-5.01
-0.25
3.79
6.97
9.32
10.89
11.74
11.91
11.51
10.76
9.91
9.22
8.81
8.67
8.63
8.52
8.19
7.61
6.85
6.07
5.44
5.07
4.95
4.93
4.80
4.33
3.40
2.06
0.52
-0.93
-2.08
-2.83
-3.25
-3.56
-4.01
-4.85
-6.29
-8.41
-11.15
-14.24
-17.16
-19.30
-20.06
-19.09
-16.42
-12.43
-7.76
-3.09
1.08
4.50
7.15
9.18
10.75
11.97
12.82
13.25
13.19
12.67
11.87
11.03
10.38
10.00
9.80
9.57
9.12
8.40
7.50
6.63
5.92
5.38
4.88
4.20
3.20
1.88
0.38
-1.11
-2.44
-3.55
-4.51
-5.44
-6.39
-7.35
-8.24
-9.03
-9.84
-10.95
-12.69
-15.26
-18.51
-21.89
-24.54
-25.61
-24.54
-21.31
-16.42
-10.65
-4.85
0.42
4.86
8.42
11.18
13.18
14.44
15.00
15.01
14.69
14.30
14.05
14.01
14.13
14.24
14.16
13.78
13.10
12.23
11.32
10.47
9.72
8.98
8.10
6.99
5.69
4.33
3.07
1.98
0.98
-0.06
-1.30
-2.71
-4.15
-5.39
-6.22
-6.63
-6.75
-6.92
-7.54
-8.91
-11.22
-14.34
-17.82
-20.94
-22.91
-23.11
-21.28
-17.67
-12.87
-7.61
-2.48
2.15
6.13
9.40
11.92
13.62
14.50
14.66
14.34
13.83
13.39
13.15
13.06
12.99
12.80
12.41
11.84
11.20
10.60
10.07
9.62
9.14
8.56
7.83
6.98
6.10
5.27
4.50
3.71
2.78
1.59
0.10
-1.58
-3.22
-4.55
-5.34
-5.55
-5.38
-5.25
-5.65
-6.93
-9.22
-12.25
-15.42
-17.99
-19.25
-18.78
-16.56
-12.91
-8.39
-3.58
0.98
4.97
8.17
10.51
12.00
12.68
12.68
12.19
11.46
10.74
10.22
9.98
9.95
10.01
9.98
9.78
9.37
8.76
8.02
7.20
6.35
5.50
4.68
3.89
3.07
2.13
0.96
-0.46
-2.07
-3.68
-5.08
-6.14
-6.80
-7.15
-7.34
-7.58
-8.11
-9.17
-10.99
-13.59
-16.77
-19.99
-22.47
-23.40
-22.27
-19.01
-14.10
-8.34
-2.61
2.40
6.38
9.29
11.34
12.74
13.69
14.33
14.72
14.92
14.97
14.90
14.73
14.44
13.99
13.39
12.66
11.88
11.16
10.54
10.04
9.56
8.97
8.18
7.17
6.00
4.78
3.59
2.45
1.32
0.14
-1.16
-2.59
-4.12
-5.67
-7.14
-8.41
-9.34
-9.90
-10.17
-10.43
-11.13
-12.70
-15.37
-19.01
-23.04
-26.56
-28.62
-28.49
-25.97
-21.40
-15.51
-9.19
-3.17
2.12
6.54
10.10
12.81
14.68
15.68
15.89
15.54
14.97
14.48
14.24
14.22
14.22
14.04
13.60
12.96
12.32
11.86
11.63
11.57
11.49
11.20
10.60
9.69
8.57
7.38
6.24
5.18
4.21
3.29
2.38
1.43
0.38
-0.82
-2.20
-3.75
-5.32
-6.73
-7.78
-8.42
-8.81
-9.33
-10.44
-12.50
-15.53
-19.12
-22.43
-24.52
-24.58
-22.29
-17.93
-12.25
-6.18
-0.52
4.31
8.23
11.38
13.94
15.95
17.37
18.19
18.52
18.62
18.79
19.23
19.91
20.58
20.85
20.43
19.21
17.37
15.27
13.30
11.73
10.67
9.99
9.50
9.04
8.55
8.11
7.83
7.80
8.03
8.38
8.68
8.76
8.55
8.11
7.55
6.96
6.34
5.50
4.19
2.16
-0.71
-4.35
-8.52
-12.88
-17.01
-20.48
-22.88
-23.90
-23.36
-21.35
-18.17
-14.29
-10.21
-6.34
-2.98
-0.26
1.77
3.15
3.94
4.24
4.19
3.89
3.47
3.00
2.52
2.05
1.54
1.00
0.43
-0.09
-0.45
-0.57
-0.41
-0.10
0.14
0.08
-0.41
-1.30
-2.41
-3.49
-4.38
-5.06
-5.64
-6.28
-7.12
-8.15
-9.23
-10.13
-10.69
-10.92
-11.06
-11.51
-12.62
-14.59
-17.34
-20.47
-23.40
-25.41
-25.92
-24.54
-21.25
-16.39
-10.64
-4.75
0.63
5.14
8.68
11.38
13.35
14.67
15.33
15.43
15.14
14.72
14.38
14.15
