1607661765.00
64.000000
-0.00
-0.00
-0.00
-0.00
-0.00
-0.00
-0.00
-0.00
-0.00
-0.00
0.00
0.01
0.01
-0.00
-0.03
-0.05
-0.05
0.00
0.13
0.36
0.66
1.01
1.37
1.72
2.06
2.40
2.79
3.24
3.80
4.42
5.06
5.66
6.20
6.68
7.15
7.68
8.31
9.14
10.09
11.04
11.88
12.56
13.14
13.76
14.65
15.96
17.91
20.32
22.90
25.38
27.58
29.57
31.68
34.32
37.81
42.54
48.15
54.10
59.83
64.97
69.58
74.14
79.34
85.71
93.76
103.00
112.62
121.73
129.77
136.75
143.30
150.75
157.77
166.64
177.95
191.79
206.97
220.57
228.25
225.36
208.53
176.87
132.76
80.05
23.07
-34.94
-92.44
-149.16
-205.23
-260.37
-313.74
-363.87
-409.83
-450.91
-486.50
-515.74
-537.23
-549.22
-549.96
-538.37
-514.21
-478.67
-433.88
-382.45
-327.02
-269.84
-212.63
-156.66
-102.95
-52.37
-5.90
35.58
71.43
101.35
125.50
144.38
158.69
169.15
176.37
180.75
182.57
182.07
179.51
175.23
169.65
163.18
156.15
148.81
141.30
133.69
126.02
118.33
110.69
103.16
95.80
88.68
81.83
75.25
68.95
62.95
57.25
51.86
46.78
42.03
37.59
33.45
29.61
26.07
22.81
19.83
17.11
14.67
12.48
10.54
8.83
7.35
6.07
4.97
4.05
3.27
2.62
2.09
1.65
1.30
1.01
0.79
0.61
0.47
0.37
0.29
0.23
0.19
0.17
0.16
0.16
0.17
0.19
0.21
0.24
0.27
0.31
0.36
0.40
0.44
0.49
0.54
0.59
0.64
0.70
0.76
0.82
0.89
0.97
1.05
1.15
1.25
1.37
1.50
1.65
1.81
1.99
2.20
2.43
2.68
2.95
3.26
3.59
3.96
4.36
4.80
5.27
5.78
6.33
6.92
7.55
8.22
8.94
9.71
10.52
11.37
12.28
13.22
14.22
15.28
16.41
17.60
18.85
20.12
21.40
22.60
23.66
24.47
24.90
24.85
24.19
22.86
20.80
18.05
14.66
10.71
6.39
1.91
-2.55
-6.76
-10.55
-13.76
-16.28
-18.07
-19.13
-19.48
-19.21
-18.42
-17.22
-15.72
-14.05
-12.30
-10.54
-8.82
-7.12
-5.45
-3.81
-2.17
-0.50
1.19
2.90
4.63
6.39
8.28
10.26
12.33
14.52
16.85
19.27
21.74
24.24
26.81
29.63
32.58
35.71
39.07
42.64
46.31
49.93
53.39
56.73
60.21
63.78
67.55
71.67
76.08
80.53
84.62
88.00
90.57
92.63
94.09
95.17
95.98
96.25
95.18
91.51
83.68
69.76
52.72
33.77
14.04
-5.64
-24.94
-43.98
-63.25
-83.43
-105.26
-129.27
-156.13
-185.24
-214.41
-240.10
-258.26
-265.63
-261.00
-245.67
-222.83
-196.89
-171.36
-148.18
-127.82
-109.93
-94.10
-80.23
-68.35
-58.27
-49.70
-41.91
-34.15
-26.03
-17.72
-9.85
-3.18
1.88
5.45
8.05
10.44
13.27
16.73
20.55
24.14
26.94
28.67
29.45
29.58
29.44
29.29
29.14
28.89
28.36
27.50
26.35
25.10
23.95
23.03
22.37
21.88
21.43
20.85
20.01
18.90
17.59
16.32
15.34
14.89
15.07
15.84
16.97
18.21
19.31
20.16
20.70
20.95
20.89
20.47
19.65
18.40
16.76
14.84
12.80
10.82
9.09
7.77
6.97
6.75
7.04
7.66
8.43
9.12
9.58
9.69
9.41
8.71
7.63
6.28
4.85
3.55
2.56
1.98
1.83
2.02
2.44
2.90
3.21
3.22
2.82
2.10
1.26
0.58
0.29
0.39
0.68
0.89
0.83
0.50
0.07
-0.24
-0.33
-0.21
-0.03
0.05
-0.03
-0.27
-0.57
-0.87
-1.10
-1.21
-1.13
-0.76
-0.03
1.10
2.57
4.27
5.96
7.43
8.51
9.11
9.32
9.27
9.09
8.83
8.47
7.98
7.41
6.90
6.59
6.60
6.88
7.27
7.63
7.82
7.81
7.66
7.40
7.01
6.45
5.72
4.83
3.87
2.94
2.11
1.42
0.85
0.34
-0.21
-0.87
-1.69
-2.64
-3.61
-4.49
-5.18
-5.60
-5.77
-5.65
-5.16
-4.22
-2.82
-1.02
0.94
2.80
4.28
5.26
5.75
5.90
5.84
5.70
5.52
5.26
4.82
4.16
3.25
2.21
1.25
0.65
0.71
1.64
3.44
5.94
8.76
11.48
13.72
15.21
15.95
16.08
15.91
15.71
15.68
15.82
16.04
16.25
16.45
16.85
17.81
19.78
23.04
27.54
32.78
37.84
41.63
43.22
42.26
39.11
34.89
31.15
29.33
30.29
33.85
38.64
42.31
42.09
35.58
21.54
0.37
-25.89
-54.11
-80.99
-104.00
-121.92
-134.94
-144.20
-151.08
-156.63
-161.22
-164.47
-165.41
-162.82
-155.62
-143.26
-126.02
-104.89
-81.24
-56.30
-30.95
-5.72
18.86
42.11
63.46
82.87
101.21
119.91
140.06
161.41
181.96
198.70
209.20
213.13
212.78
212.05
214.53
221.47
231.05
239.14
241.17
234.15
217.73
194.09
166.63
138.42
111.09
84.59
57.71
29.04
-2.62
-38.31
-79.21
-126.39
-179.83
-237.05
-292.40
-337.90
-365.70
-370.98
-353.89
-319.23
-274.08
-224.76
-174.94
-125.80
-77.87
-32.97
5.32
32.94
47.44
49.51
42.85
32.42
22.38
14.72
9.22
4.45
-1.04
-7.76
-15.32
-23.03
-30.59
-38.38
-47.19
-57.60
-69.52
-81.97
-93.19
-101.18
-104.39
-102.35
-95.86
-86.65
-76.80
-68.14
-62.13
-59.23
-58.88
-59.89
-60.99
-61.20
-60.09
-57.77
-54.62
-51.81
-49.76
-47.66
-43.84
-36.76
-25.51
-9.75
10.35
34.75
61.91
91.19
123.01
157.88
194.87
231.33
264.31
290.83
309.27
316.18
309.93
291.37
263.03
227.24
185.18
137.57
83.40
21.21
-53.87
-143.18
-241.44
-337.44
-418.62
-475.86
-505.46
-511.35
-478.35
-406.61
-313.02
-221.29
-145.83
-88.06
-47.33
-14.97
12.90
37.30
54.58
62.91
63.27
59.03
53.77
49.84
49.15
51.85
57.89
64.27
69.10
72.73
76.76
81.80
86.45
88.98
87.48
81.86
71.80
58.24
43.08
28.34
15.16
3.95
-4.29
-8.40
-6.76
0.85
13.65
30.08
48.09
65.42
79.97
90.48
96.31
97.56
94.45
87.65
78.42
68.58
60.09
54.47
52.40
53.28
55.60
57.45
57.29
54.57
49.74
43.89
38.16
33.12
28.71
24.30
19.18
12.96
5.72
-1.98
-9.43
-16.01
-21.53
-26.26
-30.76
-35.78
-41.92
-49.52
-58.47
-67.99
-76.60
-82.31
-83.05
-77.32
-64.84
-46.78
-25.50
-3.89
15.51
31.23
43.02
51.60
57.96
62.82
66.33
68.23
68.21
66.38
63.37
60.16
57.66
56.31
55.90
55.76
55.15
53.66
51.35
48.58
45.72
42.86
39.74
35.89
30.92
24.73
17.65
10.26
3.19
-3.11
-8.52
-13.19
-17.49
-21.83
-26.54
-31.88
-38.10
-45.34
-53.60
-62.37
-70.53
-76.37
-78.02
-74.01
-63.88
-48.44
-29.58
-9.76
8.72
24.22
35.93
43.71
47.83
48.72
46.95
43.20
38.34
33.45
29.52
27.34
27.16
28.68
31.10
33.40
34.69
34.53
32.96
30.41
27.36
24.07
20.42
16.03
10.53
3.78
-3.92
-11.94
-19.63
-26.55
-32.64
-38.20
-43.73
-49.74
-56.60
-64.45
-73.14
-82.03
-90.03
-95.62
-97.17
-93.42
-83.89
-69.22
-51.11
-31.89
-13.95
0.85
11.52
17.95
20.66
20.44
18.12
14.48
10.36
6.64
4.14
3.42
4.59
7.28
10.89
14.93
19.22
24.01
29.85
37.41
47.33
60.10
75.91
94.48
115.02
136.35
157.10
175.96
191.84
203.76
210.69
211.69
206.11
194.07
176.61
155.60
133.20
111.36
91.44
74.33
60.72
51.19
46.15
45.51
48.32
52.86
57.08
59.12
57.86
53.04
45.15
35.00
23.42
11.07
-1.61
-14.29
-26.65
-38.37
-49.08
-58.54
-66.65
-73.51
-79.37
-84.42
-88.76
-92.19
-94.44
-95.24
-94.60
-92.82
-90.43
-87.90
-85.49
-83.21
-80.94
-78.70
-76.70
-75.33
-74.92
-75.59
-77.05
-78.75
-80.03
-80.34
-79.41
-77.18
-73.82
-69.59
-64.81
-59.76
-54.58
-49.27
-43.66
-37.52
-30.69
-23.20
-15.27
-7.27
0.41
7.40
13.41
18.18
21.51
23.30
23.66
22.86
21.37
19.69
18.26
17.34
16.96
16.96
17.09
17.07
16.72
16.04
15.16
14.30
13.62
13.16
12.77
12.23
11.29
9.84
7.94
5.80
3.63
1.60
-0.25
-2.01
-3.80
-5.73
-7.88
-10.29
-12.95
-15.67
-18.01
-19.39
-19.11
-16.74
-12.34
-6.46
-0.01
6.06
11.09
14.86
17.38
18.77
19.00
18.06
16.02
13.20
10.18
7.61
6.01
5.53
5.99
6.95
7.94
8.53
8.56
8.03
7.17
6.30
5.65
5.33
5.22
5.00
4.36
3.08
1.22
-0.92
-2.99
-4.70
-5.97
-6.94
-7.84
-8.89
-10.27
-12.11
-14.46
-17.26
-20.26
-22.89
-24.37
-23.96
-21.23
-16.40
-10.25
-3.92
1.51
5.39
7.57
8.31
7.95
6.78
4.90
2.44
-0.38
-3.16
-5.42
-6.80
-7.19
-6.76
-5.91
-5.09
-4.61
-4.63
-5.10
-5.88
-6.78
-7.63
-8.33
-8.87
-9.30
-9.71
-10.23
-10.90
-11.70
-12.54
-13.23
-13.68
-13.82
-13.71
-13.46
-13.20
-13.08
-13.24
-13.80
-14.82
-16.19
-17.59
-18.45
-18.16
-16.32
-12.93
-8.48
-3.77
0.41
3.55
5.51
6.47
6.69
6.37
5.61
4.46
3.03
1.53
0.19
-0.79
-1.34
-1.52
-1.46
-1.32
-1.25
-1.31
-1.55
-1.90
-2.31
-2.68
-3.00
-3.30
-3.60
-3.97
-4.38
-4.80
-5.17
-5.47
-5.72
-5.94
-6.16
-6.40
-6.67
-6.99
-7.42
-7.98
-8.62
-9.18
-9.33
-8.81
-7.44
-5.34
-2.89
-0.60
1.10
2.01
2.25
2.10
1.83
1.54
1.23
0.82
0.29
-0.33
-0.92
-1.39
-1.72
-1.93
-2.05
-2.12
-2.20
-2.39
-2.80
-3.51
-4.49
-5.56
-6.51
-7.13
-7.31
-7.18
-6.89
-6.66
-6.66
-7.01
-7.78
-8.97
-10.43
-11.85
-12.68
-12.37
-10.54
-7.21
-2.87
1.63
5.47
8.07
9.36
9.64
9.36
8.86
8.28
7.53
6.56
5.39
4.19
3.16
2.42
1.93
1.60
1.29
0.94
0.60
0.29
-0.02
-0.48
-1.25
-2.45
-4.05
-5.85
-7.56
-8.93
-9.88
-10.47
-10.83
-11.11
-11.48
-12.08
-13.09
-14.60
-16.50
-18.37
-19.42
-18.81
-15.96
-10.91
-4.35
2.61
8.82
13.55
16.55
18.03
18.31
17.63
16.15
13.98
11.39
8.82
6.79
5.62
5.38
5.76
6.25
6.38
5.89
4.82
3.41
1.95
0.65
-0.46
-1.50
-2.65
-4.07
-5.81
-7.79
-9.85
-11.80
-13.45
-14.70
-15.59
-16.26
-17.02
-18.22
-20.17
-22.87
-25.93
-28.51
-29.56
-28.17
-23.92
-17.12
-8.74
-0.10
7.60
13.61
17.74
20.25
21.49
21.77
21.22
19.86
17.82
15.37
12.90
10.88
9.65
9.31
9.76
10.63
11.52
12.00
11.79
10.81
9.22
7.31
5.44
3.84
2.53
1.34
-0.01
-1.72
-3.83
-6.14
-8.37
-10.28
-11.76
-12.93
-13.98
-15.15
-16.62
-18.53
-20.93
-23.72
-26.52
-28.61
-29.10
-27.21
-22.64
-15.69
-7.34
1.18
8.77
14.71
18.78
21.09
21.88
21.43
19.99
17.90
15.60
13.56
12.16
11.57
11.73
12.36
13.10
13.65
13.90
13.85
13.57
13.08
12.35
11.27
9.76
7.83
5.63
3.41
1.36
-0.43
-2.01
-3.55
-5.20
-7.02
-8.92
-10.75
-12.42
-13.91
-15.30
-16.68
-18.13
-19.73
-21.61
-23.89
-26.60
-29.43
-31.68
-32.32
-30.38
-25.41
-17.72
-8.44
0.99
9.23
15.51
19.70
22.07
23.02
22.83
21.66
19.65
17.06
14.37
12.16
10.91
10.85
11.77
13.15
14.35
14.85
14.46
13.34
11.86
10.39
9.09
7.87
6.54
4.96
3.17
1.40
-0.10
-1.17
-1.88
-2.42
-2.99
-3.66
-4.35
-4.91
-5.22
-5.34
-5.52
-6.11
-7.45
-9.74
-12.92
-16.54
-19.84
-21.83
-21.58
-18.55
-12.87
-5.34
2.73
10.01
15.52
18.94
20.47
20.57
19.70
18.04
15.68
12.69
9.38
6.24
3.84
2.57
2.44
3.14
4.09
4.75
4.77
4.08
2.86
1.40
-0.02
-1.18
-1.93
-2.15
-1.74
-0.66
0.92
2.62
3.89
4.19
3.26
1.28
-1.17
-3.31
-4.53
-4.63
-3.88
-2.87
-2.19
-2.14
-2.54
-2.82
-2.28
-0.31
3.31
8.40
14.39
20.54
26.19
30.85
34.30
36.53
37.62
37.66
36.80
35.25
33.35
31.60
30.52
30.41
31.18
32.33
32.95
32.17
29.39
24.58
18.31
11.52
5.23
0.19
-3.22
-5.11
-5.89
-6.33
-7.31
-9.75
-14.31
-21.17
-29.83
-39.22
-48.12
-55.74
-61.99
-67.56
-73.37
-80.11
-87.76
-95.58
-102.43
-107.26
-109.43
-108.87
-105.91
-101.17
-95.47
-89.89
-85.74
-84.24
-86.17
-91.45
-98.97
-106.91
-113.34
-117.01
-117.86
-116.68
-114.09
-109.59
-101.43
-87.80
-68.59
-46.39
-25.91
-11.64
-5.16
-3.83
-1.93
6.30
23.34
46.95
71.41
90.58
100.91
102.67
98.87
93.02
87.17
81.43
74.70
66.13
56.03
45.91
37.64
32.31
29.57
27.81
25.03
20.01
13.08
6.07
1.51
1.39
6.19
14.73
24.72
33.78
40.43
44.41
46.42
47.55
48.58
49.68
50.59
50.89
50.34
49.04
47.30
45.53
44.03
42.88
41.98
41.08
39.93
38.30
36.11
33.45
30.52
27.54
24.70
21.96
19.17
16.09
12.55
8.57
4.38
0.31
-3.35
-6.52
-9.35
-12.18
-15.36
-19.16
-23.67
-28.88
-34.61
-40.42
-45.52
-48.90
-49.46
-46.50
-40.11
-31.24
-21.36
-11.88
-3.54
3.65
10.20
16.54
22.59
27.76
31.33
32.94
32.85
31.89
31.00
30.80
31.40
32.46
33.49
34.13
34.27
33.92
33.11
31.78
29.80
27.10
23.76
20.03
16.24
12.63
9.23
5.90
2.45
-1.21
-4.99
-8.71
-12.14
-15.17
-17.90
-20.56
-23.49
-27.05
-31.61
-37.30
-43.88
-50.52
-55.81
-58.11
-56.09
-49.23
-38.12
-24.29
-9.65
4.12
15.90
25.29
32.25
36.97
39.61
40.43
39.82
38.35
36.69
35.41
34.85
35.04
35.76
36.67
37.45
37.84
37.70
36.92
35.46
33.31
30.48
27.08
23.23
19.12
14.88
10.57
6.13
1.46
-3.50
-8.69
-13.94
-19.03
-23.74
-28.02
-32.01
-36.00
-40.45
-45.85
-52.56
-60.48
-68.88
-76.30
-80.89
-80.97
-75.70
-65.45
-51.73
-36.69
-22.33
-9.94
0.03
7.77
13.69
18.11
21.26
23.37
24.83
26.15
27.83
30.16
33.10
36.36
39.53
42.26
44.35
45.73
46.39
46.31
45.44
43.69
41.03
37.60
33.73
29.80
26.19
22.99
20.03
16.96
13.46
9.47
5.20
0.99
-2.89
-6.55
-10.37
-14.88
-20.53
-27.49
-35.64
-44.49
-53.14
-60.21
-63.94
-62.62
-55.06
-41.20
-22.24
-0.39
21.80
42.17
59.46
73.37
84.33
93.01
100.12
106.24
111.80
117.20
122.69
128.41
134.19
139.72
144.63
148.71
152.10
155.27
158.66
162.10
164.33
162.96
155.03
138.00
110.77
74.29
31.43
-13.69
-56.65
-93.62
-121.96
-140.39
-148.78
-147.93
-139.22
-124.37
-105.26
-83.89
-62.21
-42.05
-24.92
-11.81
-3.07
1.68
3.39
3.42
3.28
4.36
7.49
12.62
18.69
23.87
26.24
24.48
18.42
8.91
-2.68
-15.15
-27.93
-41.01
-54.47
-68.08
-81.04
-92.10
-99.83
-102.98
-100.63
-92.40
-78.50
-59.83
-38.03
-15.46
5.12
21.03
30.07
31.01
23.80
9.68
-9.03
-29.25
-47.87
-62.57
-72.46
-78.25
-81.54
-83.81
-85.52
-85.81
-83.20
-76.76
-66.77
-54.64
-41.90
-29.07
-15.30
0.86
20.19
41.56
62.06
78.15
87.28
89.04
85.05
77.94
70.00
62.41
55.23
48.05
40.60
33.14
26.29
20.63
16.43
13.46
11.17
8.96
6.48
3.73
1.07
-1.00
-2.14
-2.29
-1.79
-1.19
-1.04
-1.62
-2.84
-4.33
-5.60
-6.27
-6.24
-5.66
-4.80
-3.95
-3.23
-2.57
-1.82
-0.88
0.20
1.23
1.99
2.32
2.23
1.83
1.27
0.62
-0.15
-1.11
-2.28
-3.65
-5.12
-6.58
-8.02
-9.45
-10.88
-12.26
-13.40
-14.08
-14.08
-13.35
-11.99
-10.19
-8.16
-6.06
-4.02
-2.22
-0.89
-0.30
-0.63
-1.81
-3.56
-5.43
-7.03
-8.20
-9.05
-9.86
-10.87
-12.13
-13.42
-14.35
-14.48
-13.61
-11.78
-9.34
-6.87
-4.99
-4.17
-4.69
-6.45
-9.09
-12.04
-14.67
-16.50
-17.31
-17.23
-16.62
-16.04
-15.92
-16.49
-17.71
-19.36
-21.14
-22.82
-24.32
-25.64
-26.80
-27.78
-28.47
-28.70
-28.28
-27.04
-24.79
-21.44
-17.03
-11.77
-6.03
-0.30
5.02
9.65
13.55
16.80
19.51
21.75
23.49
24.69
25.35
25.53
25.37
25.03
24.64
24.29
24.04
23.84
23.54
22.93
21.76
19.88
17.35
14.40
11.39
8.66
6.43
4.71
3.41
2.38
1.54
0.87
0.41
0.15
0.04
-0.06
-0.33
-0.91
-1.98
-3.69
-6.14
-9.30
-12.90
-16.36
-18.88
-19.70
-18.31
-14.71
-9.45
-3.36
2.68
7.97
12.16
15.15
16.96
17.69
17.42
16.29
14.53
12.43
10.24
8.20
6.45
5.00
3.81
2.78
1.80
0.75
-0.46
-1.92
-3.70
-5.81
-8.21
-10.78
-13.35
-15.76
-17.91
-19.84
-21.65
-23.46
-25.32
-27.17
-28.86
-30.25
-31.30
-32.05
-32.66
-33.34
-34.32
-35.82
-37.94
-40.53
-43.06
-44.62
-44.04
-40.29
-32.94
-22.39
-9.84
3.05
14.75
24.24
31.22
35.91
38.72
40.01
39.94
38.63
36.28
33.36
30.45
28.09
26.54
25.68
25.13
24.39
23.16
21.41
19.35
17.30
15.43
13.76
12.12
10.26
8.00
5.32
2.32
-0.82
-3.92
-6.84
-9.53
-11.97
-14.19
-16.22
-18.13
-20.06
-22.21
-24.83
-28.16
-32.11
-36.19
-39.36
-40.27
-37.69
-31.07
-20.83
-8.31
4.64
16.33
25.66
32.26
36.38
38.44
38.84
37.85
35.71
32.82
29.65
26.71
24.35
22.66
21.50
20.65
19.90
19.10
18.18
17.08
15.70
13.97
11.89
9.50
6.94
4.32
1.66
-1.11
-4.08
-7.31
-10.74
-14.13
-17.26
-19.90
-22.03
-23.81
-25.58
-27.71
-30.56
-34.29
-38.75
-43.44
-47.35
-49.23
-47.81
-42.31
-32.77
-20.19
-6.32
6.97
18.15
26.50
32.04
35.23
36.65
36.65
35.42
33.13
30.11
26.82
23.84
21.57
20.16
19.42
18.96
18.39
17.45
16.11
14.49
12.82
11.24
9.76
8.27
6.54
4.35
1.57
-1.76
-5.44
-9.12
-12.48
-15.31
-17.56
-19.40
-21.08
-22.90
-25.11
-27.94
-31.49
-35.67
-39.98
-43.44
-44.74
-42.60
-36.31
-26.17
-13.43
0.06
12.46
22.52
29.80
34.48
37.01
37.80
37.06
34.96
31.79
28.08
24.53
21.80
20.24
19.82
20.06
20.31
19.99
18.81
16.84
14.44
12.03
9.88
7.99
6.18
4.15
1.72
-1.15
-4.29
-7.48
-10.51
-13.26
-15.72
-17.90
-19.90
-21.91
-24.18
-27.02
-30.75
-35.37
-40.44
-45.00
-47.69
-47.19
-42.65
-34.11
-22.58
-9.68
2.83
13.60
21.97
27.86
31.54
33.29
33.28
31.66
28.70
24.97
21.23
18.26
16.52
15.99
16.22
16.51
16.25
15.15
13.32
11.15
9.09
7.45
6.19
5.05
3.59
1.45
-1.50
-5.09
-8.98
-12.68
-15.85
-18.34
-20.23
-21.78
-23.38
-25.42
-28.25
-32.13
-36.99
-42.36
-47.22
-50.14
-49.62
-44.61
-35.04
-21.95
-7.21
7.02
19.05
27.95
33.63
36.53
37.20
36.06
33.43
29.71
25.50
21.53
18.53
16.89
16.54
16.96
17.41
17.26
16.22
14.44
12.35
10.41
8.82
7.40
5.69
3.21
-0.29
-4.66
-9.40
-13.85
-17.52
-20.23
-22.16
-23.71
-25.45
-27.87
-31.37
-36.09
-41.77
-47.61
-52.34
-54.40
-52.40
-45.57
-34.14
-19.37
-3.17
12.40
25.67
35.70
42.30
45.77
46.61
45.38
42.51
38.51
33.98
29.65
26.20
24.08
23.30
23.40
23.62
23.22
21.76
19.29
16.27
13.31
10.85
8.94
7.21
5.04
1.93
-2.26
-7.19
-12.18
-16.49
-19.72
-21.89
-23.47
-25.13
-27.50
-31.01
-35.81
-41.64
-47.79
-53.00
-55.64
-54.12
-47.46
-35.79
-20.49
-3.79
11.90
24.79
34.08
39.90
42.90
43.73
42.83
40.53
37.20
33.42
29.95
27.46
26.33
26.39
27.10
27.70
27.56
26.35
24.13
21.27
18.25
15.43
12.92
10.51
7.78
4.35
0.03
-5.02
-10.30
-15.16
-19.13
-22.06
-24.17
-25.94
-27.91
-30.50
-33.99
-38.53
-44.02
-49.91
-55.09
-57.88
-56.60
-50.15
-38.64
-23.51
-7.08
8.23
20.65
29.48
34.84
37.29
37.35
35.38
31.77
27.09
22.26
18.28
15.94
15.49
16.55
18.26
19.66
20.02
19.11
17.22
14.87
12.61
10.62
8.72
6.47
3.48
-0.38
-4.84
-9.38
-13.44
-16.70
-19.15
-21.12
-23.12
-25.64
-29.07
-33.57
-39.01
-44.87
-50.13
-53.39
-53.19
-48.50
-39.21
-26.31
-11.66
2.58
14.67
23.69
29.61
32.97
34.43
34.44
33.23
31.05
28.34
25.78
24.15
23.90
25.00
26.82
28.44
29.01
28.08
25.77
22.65
19.45
16.74
14.70
13.09
11.37
8.96
5.47
0.86
-4.49
-9.94
-14.89
-18.96
-22.22
-25.09
-28.17
-32.04
-37.08
-43.37
-50.57
-57.83
-63.76
-66.57
-64.55
-56.76
-43.46
-26.30
-7.81
9.42
23.51
33.73
40.31
43.97
45.38
44.94
42.86
39.47
35.44
31.68
29.06
28.10
28.75
30.39
32.06
32.84
32.16
29.96
26.62
22.76
18.90
15.28
11.80
8.11
3.84
-1.18
-6.83
-12.76
-18.49
-23.64
-28.01
-31.67
-34.86
-37.96
-41.38
-45.58
-50.97
-57.77
-65.70
-73.71
-79.97
-82.18
-78.32
-67.50
-50.41
-29.27
-7.14
13.10
29.56
41.59
49.53
54.11
55.96
55.53
53.21
49.63
45.74
42.57
40.91
41.02
42.50
44.54
46.21
46.80
45.95
43.72
40.40
36.40
32.06
27.63
23.25
18.92
14.65
10.37
6.10
1.81
-2.47
-6.70
-10.81
-14.71
-18.29
-21.58
-24.69
-27.91
-31.65
-36.36
-42.42
-49.80
-57.81
-64.94
-69.02
-67.80
-59.76
-44.92
-24.99
-2.99
17.71
34.50
46.20
53.10
56.44
57.65
57.82
57.45
56.68
55.50
54.09
52.83
52.28
53.05
55.54
59.91
66.04
73.49
81.66
89.80
97.18
103.19
107.45
110.01
111.49
113.21
117.01
124.73
137.44
154.76
174.65
193.82
208.91
217.69
219.91
217.31
212.68
208.66
206.69
206.79
207.96
208.92
208.64
206.48
202.00
194.73
184.23
170.27
153.21
133.99
113.82
93.60
73.21
50.97
23.69
-12.38
-59.70
-117.33
-179.64
-236.88
-277.65
-292.53
-277.40
-235.08
-174.67
-108.94
-50.95
-11.08
4.55
-5.65
-39.36
-91.20
-153.67
-218.04
-275.68
-319.52
-345.54
-353.51
-346.82
-331.38
-313.51
-298.13
-287.57
-281.58
-278.36
-275.90
-272.94
-269.37
-265.90
-263.47
-262.58
-262.86
-262.95
-260.72
-253.88
-240.74
-220.82
-195.14
-165.90
-135.87
-107.54
-82.56
-61.50
-43.98
-29.03
-15.55
-2.60
10.37
23.58
37.05
50.79
64.96
79.94
96.14
113.81
132.76
152.46
172.39
192.44
213.24
235.97
261.64
290.36
320.76
350.08
374.67
390.98
396.38
389.90
372.16
345.16
311.61
274.15
234.82
194.63
153.63
111.14
66.50
19.90
-26.87
-70.27
-105.70
-129.07
-138.66
-136.29
-127.17
-118.17
-115.29
-121.48
-135.95
-155.21
-175.09
-192.65
-206.88
-218.20
-227.26
-234.06
-237.82
-237.54
-232.63
-223.10
-209.29
-191.22
-168.29
-139.40
-103.57
-60.62
-11.56
41.38
94.79
144.18
184.19
209.16
214.55
198.65
163.97
117.20
67.34
22.69
-12.07
-37.06
-56.18
-74.34
-94.55
-116.34
-136.11
-149.23
-152.38
-144.90
-128.79
-107.60
-85.13
-64.78
-49.69
-42.96
-47.20
-62.97
-87.02
-111.73
-126.61
-122.16
-93.83
-44.43
16.94
78.81
132.12
173.50
205.40
233.50
262.97
295.70
329.82
361.21
385.72
401.15
407.26
404.85
394.38
375.09
345.25
303.90
252.62
196.39
142.65
98.40
67.06
46.69
30.66
10.62
-19.95
-63.00
-115.05
-167.93
-211.29
-235.93
-237.22
-217.19
-184.04
-148.93
-121.37
-105.22
-97.86
-92.76
-84.38
-71.79
-59.16
-52.46
-55.38
-66.86
-81.72
-93.75
-98.89
-96.64
-89.19
-79.86
-71.42
-65.48
-62.50
-61.99
-62.90
-64.20
-65.77
-69.02
-76.74
-91.94
-116.18
-148.27
-184.46
-219.91
-250.57
-274.47
-291.72
-303.25
-309.64
-310.18
-303.32
-287.84
-263.87
-233.21
-198.82
-163.54
-129.03
-95.47
-61.95
-27.36
8.79
46.37
85.32
126.37
171.00
220.15
272.41
322.93
364.03
387.82
389.64
370.37
336.28
296.11
256.95
221.50
187.98
153.03
115.26
77.41
45.42
25.24
19.30
25.29
37.61
50.66
61.32
69.33
75.79
80.91
83.36
81.56
76.00
70.73
72.28
86.65
115.76
155.46
196.52
227.64
239.24
226.30
189.42
134.31
70.01
6.56
-47.32
-86.12
-108.38
-116.39
-115.06
-110.21
-107.04
-108.76
-115.80
-125.65
-133.63
-134.18
-122.86
-98.07
-61.90
-19.74
21.25
54.19
74.14
78.86
68.84
46.55
15.53
-20.70
-59.57
-99.88
-141.37
-183.79
-226.08
-266.27
-302.17
-332.10
-354.72
-368.41
-370.58
-358.20
-329.42
-285.08
-228.96
-166.08
-100.29
-32.92
36.16
105.95
172.33
228.34
267.14
285.43
285.09
271.67
250.94
225.94
196.68
162.25
123.53
84.48
50.84
27.36
15.35
12.27
13.37
14.40
13.49
11.43
10.48
12.25
16.40
20.50
21.39
17.08
8.06
-2.86
-11.97
-16.66
-16.94
-15.34
-15.61
-20.76
-31.72
-47.10
-64.24
-80.52
-94.44
-105.68
-114.45
-120.57
-123.14
-120.94
-113.35
-101.29
-87.04
-73.44
-62.38
-54.02
-46.82
-38.59
-27.72
-13.98
1.66
17.66
32.65
45.71
56.21
63.57
67.35
67.64
65.41
62.35
60.22
59.82
60.38
59.69
55.02
44.53
28.21
7.99
-13.06
-31.92
-46.71
-56.82
-62.58
-64.45
-62.56
-56.79
-47.26
-34.83
-21.22
-8.54
1.50
8.19
11.96
13.92
15.23
16.49
17.65
18.22
17.71
16.00
13.42
10.62
8.21
6.58
5.69
5.23
4.61
3.14
0.14
-4.80
-11.51
-19.03
-25.79
-30.10
-30.84
-28.05
-23.05
-17.88
-14.52
-14.05
-16.28
-20.04
-23.83
-26.48
-27.58
-27.37
-26.37
-25.00
-23.31
-21.17
-18.34
-14.76
-10.49
-5.67
-0.39
5.23
10.94
16.37
21.12
25.10
28.65
32.43
37.10
42.68
48.57
53.74
57.38
59.39
60.49
61.79
64.10
67.34
70.48
71.92
70.06
63.85
53.02
38.36
21.67
5.69
-6.41
-11.98
-10.01
-1.90
8.86
17.81
21.33
18.17
9.93
0.44
-5.94
-5.99
1.11
13.91
29.57
45.54
60.90
76.67
95.14
118.10
145.47
174.49
200.40
217.69
221.81
210.34
183.95
146.62
105.09
67.57
41.51
31.32
36.96
54.12
76.07
96.14
109.92
115.92
114.94
108.49
97.78
83.38
65.56
44.78
21.87
-1.96
-25.43
-47.18
-66.01
-81.18
-92.76
-101.82
-110.21
-119.89
-132.39
-148.57
-168.94
-193.95
-223.95
-258.38
-294.76
-328.03
-351.20
-357.24
-341.70
-304.59
-250.69
-187.98
-125.05
-68.65
-22.49
12.50
37.30
53.79
64.36
71.76
78.64
86.89
96.91
107.25
115.08
117.56
113.09
102.02
86.28
68.19
49.24
29.55
8.48
-14.13
-36.90
-56.67
-69.67
-73.11
-66.44
-51.54
-31.62
-9.35
14.33
40.42
70.24
103.62
137.55
166.58
184.74
187.86
175.22
149.41
115.11
77.35
40.40
7.60
-18.49
-35.85
-43.39
-41.45
-32.35
-20.00
-8.80
-1.98
-0.25
-1.39
-1.17
4.64
18.09
37.77
59.20
76.48
84.70
81.62
67.77
44.86
13.82
-25.99
-75.58
-133.88
-195.82
-252.69
-294.96
-316.33
-316.55
-301.49
-280.47
-262.30
-252.31
-251.55
-257.99
-268.76
-281.61
-294.98
-307.36
-316.64
-320.18
-315.83
-303.20
-284.57
-264.65
-249.11
-242.40
-245.88
-257.13
-270.96
-281.46
-284.27
-277.89
-263.56
-243.98
-221.79
-198.61
-175.09
-151.47
-128.24
-106.33
-86.76
-70.25
-56.90
-46.27
-37.59
-29.84
-22.05
-13.47
-3.76
6.80
17.35
26.73
33.91
38.42
40.63
41.50
42.17
43.46
45.58
48.22
50.86
53.29
55.78
59.07
63.85
70.34
78.04
85.84
92.47
97.06
99.55
100.76
102.21
105.63
112.51
123.69
139.11
157.84
178.25
198.32
216.07
230.00
239.46
244.84
247.58
249.98
254.61
263.33
276.33
291.55
305.07
312.32
309.86
296.62
274.23
246.15
216.02
186.36
158.04
130.76
104.11
78.36
54.57
34.12
18.00
6.46
-0.76
-4.06
-3.60
0.55
8.12
18.14
29.00
39.01
47.25
54.23
61.73
72.10
87.19
107.63
132.64
160.53
189.42
217.64
243.83
266.66
284.86
297.62
305.01
308.10
308.52
307.61
305.42
300.31
289.28
269.18
238.17
197.04
149.57
101.78
60.24
30.04
13.56
10.15
17.06
30.71
47.71
65.18
80.56
91.65
97.20
97.89
96.66
97.82
105.03
119.18
137.70
155.66
168.10
172.33
168.82
160.31
150.02
140.08
131.05
122.44
113.62
104.34
94.61
84.17
72.21
57.65
39.62
18.02
-6.34
-32.08
-57.99
-83.48
-108.96
-135.69
-165.38
-199.67
-239.39
-284.04
-331.41
-377.67
-418.25
-449.10
-468.02
-475.39
-473.77
-466.52
-456.31
-443.90
-428.30
-407.73
-381.11
-348.99
-313.65
-278.21
-245.35
-216.28
-190.50
-166.46
-142.62
-118.56
-95.26
-74.50
-57.59
-44.19
-32.16
-18.47
-0.96
20.31
42.78
62.54
76.15
82.10
81.03
74.74
65.00
52.80
38.89
24.62
12.49
5.60
6.17
14.14
26.84
40.09
50.08
55.08
55.73
54.30
53.02
52.76
52.79
51.50
47.57
40.84
32.38
23.90
16.84
11.84
8.56
6.11
3.61
0.67
-2.48
-5.24
-7.04
-7.72
-7.68
-7.70
-8.47
-10.39
-13.28
-16.57
-19.54
-21.57
-22.36
-21.97
-20.71
-18.97
-17.18
-15.65
-14.62
-14.26
-14.69
-16.06
-18.41
-21.51
-24.70
-26.92
-26.96
-24.06
-18.22
-10.44
-2.46
3.90
7.33
7.47
4.86
0.75
-3.43
-6.37
-7.27
-5.95
-2.89
0.96
4.57
7.20
8.78
9.83
11.14
13.29
16.35
19.85
23.11
25.63
27.34
28.49
29.39
30.11
30.41
29.93
28.51
26.30
23.83
21.75
20.64
20.72
21.86
23.62
25.45
26.87
27.60
27.67
27.27
26.65
25.83
24.55
22.41
19.18
15.02
10.50
6.36
3.07
0.63
-1.40
-3.51
-5.89
-8.24
-9.98
-10.67
-10.28
-9.34
-8.60
-8.67
-9.68
-11.28
-12.82
-13.80
-14.03
-13.71
-13.23
-12.85
-12.58
-12.11
-11.04
-9.08
-6.27
-2.89
0.56
3.58
5.87
7.40
8.45
9.41
10.57
12.01
13.55
14.84
15.54
15.44
14.45
12.61
10.03
6.91
3.55
0.36
-2.31
-4.33
-5.92
-7.53
-9.63
-12.44
-15.71
-18.78
-20.74
-20.66
-17.91
-12.37
-4.61
4.25
12.89
20.17
25.50
28.86
30.53
30.72
29.38
26.19
20.85
13.35
4.03
-6.52
-17.67
-28.84
-39.60
-49.57
-58.48
-66.36
-73.61
-80.68
-87.63
-93.62
-96.80
-94.92
-86.12
-69.92
-47.39
-20.97
6.43
32.11
54.06
70.92
81.83
86.37
84.77
78.06
67.90
56.13
44.01
31.91
19.48
6.37
-6.85
-18.47
-26.15
-28.07
-23.99
-15.68
-6.26
1.14
4.57
4.01
1.09
-1.77
-2.30
0.84
8.06
19.04
32.87
47.97
61.96
71.86
74.92
69.94
58.21
43.47
30.69
23.99
24.83
31.43
39.75
45.37
45.53
39.97
30.55
20.02
10.66
3.59
-1.14
-4.15
-6.20
-7.88
-9.65
-11.82
-14.56
-17.94
-21.76
-25.67
-29.12
-31.53
-32.45
-31.65
-29.33
-26.00
-22.47
-19.53
-17.73
-17.13
-17.34
-17.66
-17.45
-16.33
-14.37
-12.01
-9.84
-8.29
-7.54
-7.40
-7.49
-7.41
-6.90
-5.93
-4.69
-3.46
-2.49
-1.89
-1.64
-1.60
-1.58
-1.45
-1.16
-0.73
-0.27
0.15
0.46
0.63
0.69
0.70
0.71
0.75
0.82
0.92
1.02
1.10
1.15
1.16
1.16
1.15
1.14
1.13
1.12
1.12
1.12
1.11
1.11
1.10
1.10
1.09
1.09
1.08
1.08
1.07
1.07
1.06
1.06
1.05
1.05
1.05
1.04
1.04
1.04
1.03
1.02
1.02
1.02
1.01
1.01
1.00
1.00
0.99
0.99
0.99
0.98
0.98
0.98
0.97
0.97
0.96
0.96
0.95
0.95
0.95
0.94
0.94
0.94
0.93
0.93
0.92
0.92
0.92
0.91
0.91
0.91
0.90
0.90
0.89
0.89
0.89
0.88
0.88
0.88
0.87
0.87
0.87
0.86
0.86
0.85
0.85
0.85
0.84
0.84
0.84
0.83
0.83
0.83
0.82
0.82
0.82
0.81
0.81
0.81
0.80
0.80
0.80
0.79
0.79
0.79
0.79
0.78
0.78
0.78
0.77
0.77
0.77
0.76
0.76
0.76
0.75
0.75
0.75
0.75
0.74
0.74
0.74
0.73
0.73
0.73
0.72
0.72
0.72
0.71
0.71
0.71
0.71
0.70
0.70
0.70
0.70
0.69
0.69
0.69
0.68
0.68
0.68
0.67
0.67
0.67
0.67
0.67
0.66
0.66
0.66
0.66
0.66
0.66
0.67
0.68
0.69
0.70
0.71
0.72
0.73
0.73
0.72
0.71
0.70
0.69
0.70
0.72
0.75
0.79
0.81
0.81
0.80
0.78
0.77
0.78
0.82
0.89
0.96
1.01
1.03
1.02
1.00
1.00
1.05
1.16
1.31
1.46
1.56
1.57
1.52
1.44
1.41
1.50
1.74
2.08
2.42
2.63
2.65
2.47
2.21
2.04
2.12
2.48
3.06
3.66
4.04
4.02
3.60
2.93
2.28
1.89
1.86
2.03
2.05
1.49
0.06
-2.32
-5.44
-8.85
-11.98
-14.21
-15.03
-14.19
-11.91
-8.85
-6.10
-4.74
-5.44
-8.11
-11.89
-15.49
-17.75
-18.13
-16.89
-14.87
-13.14
-12.47
-13.19
-15.12
-17.76
-20.48
-22.75
-24.21
-24.88
-24.97
-25.00
-25.46
-26.67
-28.67
-31.22
-33.98
-36.65
-39.17
-41.72
-44.64
-48.27
-52.80
-58.19
-64.19
-70.44
-76.57
-82.26
-87.30
-91.51
-94.80
-97.25
-99.10
-100.88
-103.20
-106.42
-110.28
-113.68
-115.00
-112.77
-106.35
-96.35
-84.32
-71.85
-59.61
-46.65
-30.84
-9.96
16.94
48.52
81.47
111.48
134.81
149.34
155.04
153.61
147.84
140.87
135.75
134.94
139.99
151.03
166.41
182.80
195.87
201.62
197.83
184.91
165.82
145.00
126.55
112.72
103.22
95.60
86.71
74.23
57.73
38.68
19.73
3.49
-8.22
-14.65
-15.87
-12.35
-4.74
6.02
18.45
30.43
39.57
43.87
42.51
36.12
26.48
15.63
4.88
-5.65
-16.68
-28.96
-42.44
-55.93
-67.59
-75.68
-79.29
-78.65
-74.84
-69.37
-63.62
-58.47
-54.28
-50.90
-48.04
-45.48
-43.25
-41.61
-40.87
-41.18
-42.31
-43.81
-45.11
-45.54
-44.28
-40.32
-32.61
-20.61
-4.94
12.29
27.84
38.49
42.31
39.55
32.43
24.14
17.41
13.65
12.78
14.00
16.63
20.68
26.56
34.47
43.77
52.95
60.14
63.84
63.32
58.54
49.87
37.96
24.00
10.18
-0.36
-4.23
0.77
14.38
33.54
53.10
67.49
72.31
65.26
46.33
17.57
-17.51
-54.29
-87.76
-113.41
-128.34
-132.06
-126.51
-115.30
-102.53
-91.61
-84.67
-82.35
-84.10
-88.56
-94.09
-99.21
-103.01
-105.17
-105.91
-105.61
-104.49
-102.57
-99.76
-96.01
-91.39
-86.04
-79.97
-72.99
-64.65
-54.36
-41.55
-25.92
-7.73
11.89
30.98
47.24
58.91
65.65
68.80
70.79
73.89
79.11
85.76
91.85
95.37
95.26
91.98
87.23
83.02
80.92
81.44
84.07
87.63
90.80
92.53
92.22
89.76
85.40
79.60
72.85
65.56
57.87
49.60
40.22
29.13
15.77
-0.05
-18.15
-37.90
-58.49
-78.98
-98.51
-116.28
-131.72
-144.58
-155.10
-163.92
-171.79
-179.01
-185.12
-188.94
-189.12
-184.90
-176.70
-166.18
-155.43
-145.93
-137.64
-128.90
-117.19
-100.46
-77.97
-50.64
-20.37
10.89
41.80
71.63
99.82
125.41
146.98
163.17
173.38
178.17
179.01
177.79
176.22
175.58
176.60
179.27
182.68
184.97
183.75
176.92
163.56
144.43
121.88
99.01
78.98
64.49
57.56
59.53
70.53
89.07
111.80
134.21
152.00
162.37
164.45
158.89
146.87
129.70
109.10
87.81
69.65
58.60
57.18
65.08
78.93
93.34
102.63
102.35
90.15
66.04
32.36
-6.42
-44.45
-75.94
-96.83
-106.10
-105.66
-98.94
-88.91
-76.92
-63.08
-47.63
-32.49
-21.33
-18.06
-24.90
-41.09
-63.09
-86.39
-107.63
-125.97
-142.95
-160.81
-180.48
-200.27
-216.12
-223.28
-218.55
-201.75
-175.84
-145.47
-114.81
-85.84
-57.97
-29.08
2.46
36.01
68.14
93.68
107.79
108.07
95.33
73.11
46.07
18.09
-8.97
-35.17
-61.56
-88.77
-115.98
-140.48
-158.19
-164.91
-158.04
-138.35
-110.60
-82.90
-64.18
-61.18
-76.11
-106.37
-146.30
-189.68
-231.37
-267.28
-293.41
-305.19
-298.38
-270.92
-224.53
-164.74
-99.02
-34.03
26.47
81.80
132.81
179.84
221.35
254.19
274.92
281.67
274.98
257.74
233.80
206.46
177.40
146.76
114.34
81.17
50.57
27.46
16.51
19.81
35.50
58.24
81.09
98.09
106.32
106.52
102.17
97.58
96.09
98.83
104.64
110.99
115.33
116.19
113.51
108.10
100.71
91.61
80.58
67.76
54.43
43.10
36.72
37.25
44.54
56.15
68.23
76.92
79.56
75.12
63.87
46.64
24.39
-1.83
-30.62
-60.25
-89.01
-115.84
-140.55
-163.47
-184.52
-202.42
-214.72
-218.48
-211.35
-192.34
-162.23
-123.64
-81.01
-40.30
-8.17
9.62
10.06
-5.86
-33.43
-66.06
-97.82
-125.27
-147.64
-165.57
-179.51
-188.93
-192.84
-190.89
-183.80
-172.88
-158.86
-141.17
-118.16
-88.26
-51.16
-8.30
37.53
83.09
125.43
162.15
191.17
210.61
219.09
216.42
204.21
185.99
166.38
149.73
138.85
134.23
134.29
136.29
137.55
136.44
132.65
126.84
120.00
112.85
105.49
97.28
86.92
72.57
52.35
25.12
-8.56
-45.94
-82.41
-112.63
-132.28
-139.39
-134.79
-121.44
-103.05
-82.70
-61.94
-40.44
-16.22
13.57
51.32
97.20
147.85
196.35
233.91
252.86
249.45
225.30
186.64
141.96
99.41
64.93
41.76
30.59
30.15
37.62
49.18
61.03
70.53
77.22
82.79
90.11
101.52
117.51
136.23
154.08
166.99
171.82
167.42
154.96
137.61
119.54
104.80
96.16
94.49
98.78
106.73
115.66
123.09
127.11
126.49
120.65
109.55
93.88
74.89
54.17
33.14
12.39
-8.60
-31.41
-58.04
-89.64
-125.65
-163.36
-198.58
-226.84
-244.65
-250.41
-244.58
-229.35
-207.91
-183.85
-160.37
-139.62
-122.12
-106.59
-90.47
-70.92
-46.15
-16.16
17.41
52.20
86.07
117.44
144.69
165.31
175.72
172.02
151.84
116.02
69.19
18.65
-28.14
-65.95
-93.07
-110.80
-121.71
-127.93
-130.30
-128.89
-124.17
-117.85
-112.75
-111.67
-116.01
-124.84
-135.18
-143.30
-146.30
-143.32
-135.61
-125.77
-116.25
-108.24
-101.39
-94.34
-85.87
-75.81
-65.26
-56.08
-50.00
-47.67
-48.47
-50.81
-52.97
-53.75
-52.85
-50.68
-47.84
-44.75
-41.35
-37.28
-32.23
-26.26
-19.90
-13.98
-9.34
-6.42
-5.18
-5.21
-5.93
-6.91
-7.86
-8.57
-8.80
-8.17
-6.33
-3.10
1.38
6.62
11.96
16.76
20.71
23.81
26.31
28.56
30.84
33.25
35.70
37.88
39.29
39.38
37.74
34.31
29.50
24.14
19.22
15.61
13.79
13.95
16.09
20.25
26.50
34.81
44.78
55.54
65.95
74.89
81.51
85.28
85.88
83.03
76.54
66.58
53.94
40.02
26.51
14.78
5.38
-1.99
-8.13
-13.74
-18.96
-23.40
-26.50
-27.92
-27.84
-26.72
-25.03
-22.92
-20.27
-16.90
-12.95
-9.10
-6.42
-6.02
-8.49
-13.63
-20.42
-27.26
-32.49
-34.83
-33.80
-29.84
-24.24
-18.75
-15.15
-14.74
-17.97
-24.54
-33.64
-44.56
-57.06
-71.37
-87.80
-106.04
-124.98
-142.85
-157.97
-169.54
-178.00
-184.58
-190.34
-195.19
-197.41
-194.02
-182.00
-159.47
-126.49
-85.28
-39.48
6.64
49.23
85.51
114.11
135.08
149.61
159.61
166.99
173.08
178.19
181.58
181.79
177.18
166.62
150.04
128.70
105.08
82.11
62.09
45.58
31.23
16.62
0.17
-17.92
-35.85
-51.45
-63.88
-74.38
-85.33
-98.54
-113.75
-128.30
-139.11
-145.05
-148.18
-152.90
-163.68
-182.41
-207.65
-235.59
-261.41
-281.68
-295.20
-302.34
-303.79
-299.85
-290.08
-274.53
-254.55
-230.98
-205.59
-180.60
-157.91
-138.01
-120.21
-101.78
-80.27
-54.39
-20.63
22.70
74.31
130.08
185.07
234.39
277.22
313.80
344.45
374.77
408.66
446.25
483.97
517.72
543.78
564.54
582.93
600.06
621.74
650.24
682.70
712.72
734.83
744.86
745.79
739.42
679.58
540.76
330.17
87.67
-139.12
-302.97
-410.19
-474.07
-507.50
-520.66
-514.57
-488.38
-445.22
-393.80
-345.03
-309.96
-290.51
-284.82
-289.51
-295.46
-295.53
-287.60
-274.42
-260.39
-250.28
-243.08
-237.00
-231.04
-221.55
-206.01
-184.31
-158.93
-133.34
-111.74
-94.65
-81.54
-71.37
-61.12
-48.16
-31.54
-12.61
5.95
20.83
31.21
37.93
43.06
49.64
60.04
75.01
93.27
112.22
128.59
140.63
147.82
150.57
149.37
144.45
136.42
125.87
113.48
99.20
83.89
68.72
54.84
42.53
31.33
21.79
14.44
9.54
5.06
0.39
-4.26
-7.92
-10.39
-12.13
-11.84
-8.35
-1.17
6.46
13.54
20.44
28.85
39.29
51.32
66.75
87.29
113.89
142.58
171.97
202.03
234.18
268.75
288.19
279.91
240.48
200.44
169.10
147.00
122.74
93.04
59.26
25.81
0.48
-11.41
-9.43
-1.75
4.55
4.89
-1.23
-12.84
-28.83
-46.28
-63.18
-78.41
-94.18
-110.06
-124.39
-134.65
-139.51
-139.53
-135.32
-129.07
-123.67
-123.49
-130.21
-143.57
-161.31
-175.89
-179.41
-166.36
-138.37
-102.12
-65.80
-37.84
-20.95
-16.91
-26.88
-50.77
-85.72
-124.44
-157.58
-175.61
-165.19
-122.33
-55.75
17.05
74.65
109.88
121.46
111.62
85.35
50.27
14.96
-12.16
-23.93
-16.81
8.17
44.03
81.17
110.99
128.19
130.94
120.78
101.70
77.98
52.71
26.06
-2.99
-34.78
-68.09
-100.95
-131.12
-156.48
-175.63
-187.84
-193.76
-194.29
-189.94
-180.70
-166.52
-147.45
-123.65
-95.56
-63.95
-30.33
3.46
35.69
64.90
89.83
109.46
123.25
131.17
133.85
132.33
127.85
121.62
114.46
106.73
98.43
89.40
79.47
68.75
57.57
46.50
36.11
26.88
19.16
13.15
8.95
6.51
5.60
5.69
6.12
6.35
6.32
6.57
8.02
11.44
16.82
23.19
28.93
32.50
33.17
31.26
27.84
24.01
20.41
16.94
13.22
9.06
4.86
1.58
0.38
2.10
6.92
14.35
23.34
32.54
40.46
45.68
47.13
44.34
37.62
27.91
16.49
4.35
-8.16
-21.52
-36.67
-54.61
-75.84
-100.09
-126.38
-153.26
-179.23
-203.07
-224.02
-241.66
-255.80
-266.31
-273.10
-276.05
-275.10
-270.13
-260.85
-246.91
-228.20
-205.39
-180.39
-156.16
-136.06
-122.53
-116.06
-114.83
-115.25
-113.20
-105.39
-90.22
-67.94
-40.25
-9.61
21.22
49.66
73.60
91.78
104.09
111.63
116.40
120.48
125.27
131.01
136.91
141.75
144.60
145.27
144.25
142.42
140.57
139.30
139.13
140.45
143.52
148.10
153.36
157.91
160.46
160.29
157.68
153.62
149.31
145.52
142.34
139.35
135.90
131.57
126.29
120.34
114.16
108.23
103.01
98.90
96.32
95.67
97.27
101.30
107.79
116.63
127.55
140.25
154.33
169.23
184.19
198.11
209.73
217.82
221.41
220.00
213.47
202.09
186.35
166.86
144.22
118.95
91.42
62.04
31.40
0.58
-28.91
-55.34
-77.29
-94.15
-106.20
-114.42
-119.95
-123.77
-126.60
-129.11
-131.94
-135.70
-140.54
-145.83
-150.30
-152.42
-151.29
-147.16
-141.44
-136.12
-132.88
-132.29
-133.71
-135.71
-136.83
-136.24
-133.81
-129.89
-124.90
-119.19
-113.19
-107.63
-103.57
-101.99
-103.40
-107.58
-113.77
-121.13
-129.14
-137.56
-146.17
-154.43
-161.44
-166.36
-168.85
-169.26
-168.51
-167.58
-167.13
-167.35
-167.94
-168.28
-167.64
-165.29
-160.83
-154.35
-146.62
-138.76
-131.80
-126.10
-121.01
-115.11
-106.86
-95.30
-80.45
-63.10
-44.26
-24.50
-3.78
18.26
41.72
66.00
89.90
112.04
131.53
148.24
162.61
175.09
185.55
193.21
197.01
196.26
191.08
182.49
171.97
160.91
150.23
140.19
130.56
120.90
110.79
99.92
88.17
75.52
62.08
48.12
34.11
20.65
8.34
-2.36
-11.38
-19.07
-26.08
-33.12
-40.71
-48.90
-57.20
-64.70
-70.41
-73.58
-73.88
-71.48
-66.86
-60.58
-53.09
-44.54
-34.96
-24.44
-13.41
-2.78
6.24
12.46
15.25
14.80
12.15
8.74
5.91
4.30
3.81
3.76
3.44
2.47
1.08
-0.16
-0.72
-0.42
0.35
0.77
-0.07
-2.71
-7.05
-12.27
-17.03
-19.88
-19.71
-16.15
-9.65
-1.42
6.94
13.99
18.86
21.56
22.92
24.26
26.71
30.72
35.90
41.29
46.05
50.04
53.97
59.02
66.20
75.53
85.80
94.69
99.36
97.29
87.09
69.06
45.28
19.16
-5.54
-25.81
-40.22
-49.12
-54.04
-56.80
-58.68
-60.06
-60.73
-60.32
-58.63
-55.67
-51.48
-45.99
-39.14
-31.11
-22.51
-14.24
-7.21
-1.87
1.92
4.76
7.48
10.70
14.74
19.51
24.69
29.75
34.16
37.47
39.52
40.56
41.26
42.53
45.09
49.11
53.97
58.31
60.58
59.61
55.15
47.93
39.44
31.36
24.98
20.99
19.38
19.69
21.22
23.23
25.02
25.96
25.65
24.00
21.17
17.54
13.41
8.78
3.37
-3.26
-11.34
-20.69
-30.60
-40.02
-47.82
-53.13
-55.51
-55.05
-52.24
-47.86
-42.85
-38.08
-34.29
-31.83
-30.67
-30.40
-30.44
-30.21
-29.39
-27.98
-26.22
-24.46
-22.94
-21.72
-20.71
-19.77
-18.77
-17.59
-16.08
-14.06
-11.48
-8.50
-5.54
-3.25
-2.13
-2.36
-3.56
-5.01
-5.86
-5.54
-3.94
-1.38
1.60
4.51
7.09
9.32
11.30
13.16
14.97
16.76
18.59
20.54
22.68
24.99
27.29
29.26
30.50
30.76
29.99
28.44
26.53
24.72
23.32
22.39
21.76
21.09
20.06
18.46
16.31
13.82
11.28
9.00
7.19
5.96
5.33
5.19
5.38
5.65
5.75
5.43
4.61
3.28
1.51
-0.61
-3.02
-5.68
-8.55
-11.56
-14.71
-18.18
-22.45
-28.29
-36.39
-47.10
-60.01
-73.95
-87.24
-98.23
-105.65
-108.94
-108.19
-103.89
-96.83
-87.92
-78.23
-68.86
-60.69
-54.01
-48.46
-43.31
-38.08
-33.17
-29.83
-29.69
-33.84
-42.33
-54.04
-67.09
-79.29
-88.40
-92.23
-88.82
-77.00
-57.15
-31.62
-4.43
19.94
38.04
48.60
52.62
52.54
50.93
49.64
49.37
50.09
51.50
53.35
55.54
58.07
60.80
63.44
65.55
66.67
66.41
64.68
61.68
57.87
53.77
49.81
46.10
42.52
38.79
34.74
30.40
25.98
21.76
17.79
13.81
9.27
3.58
-3.63
-12.27
-21.84
-31.57
-40.72
-48.88
-56.02
-62.59
-69.28
-76.83
-85.77
-96.05
-106.92
-116.85
-123.85
-125.90
-121.57
-110.43
-93.23
-71.65
-47.93
-24.33
-2.73
15.52
29.72
39.72
45.91
49.13
50.47
51.10
51.96
53.57
56.01
58.93
61.87
64.36
66.05
66.72
66.18
64.25
60.80
55.81
49.45
42.03
33.99
25.77
17.70
9.99
2.59
-4.79
-12.66
-21.66
-32.24
-44.22
-56.54
-67.18
-73.61
-73.52
-65.68
-50.40
-29.57
-6.09
16.90
36.77
51.88
61.63
66.32
66.86
64.56
60.86
57.18
54.56
53.51
53.89
55.08
56.19
56.46
55.46
53.06
49.39
44.64
38.95
32.38
24.99
16.94
8.50
0.06
-8.03
-15.53
-22.43
-29.00
-35.77
-43.35
-52.26
-62.61
-73.75
-84.16
-91.62
-93.73
-88.68
-75.91
-56.51
-32.91
-8.24
14.58
33.54
47.77
57.36
62.94
65.33
65.45
64.25
62.73
61.77
61.92
63.20
65.13
66.99
68.17
68.46
68.08
67.48
67.00
66.58
65.76
63.82
60.18
54.60
47.38
39.19
30.84
22.92
15.59
8.55
1.17
-7.30
-17.45
-29.41
-42.60
-55.60
-66.30
-72.32
-71.66
-63.48
-48.36
-28.26
-5.80
16.35
36.21
52.57
64.95
73.27
77.69
78.66
76.98
73.86
70.63
68.44
67.84
68.64
69.99
70.80
70.15
67.62
63.43
58.20
52.67
47.31
42.20
37.05
31.42
25.05
18.03
10.74
3.73
-2.59
-8.10
-13.01
-17.79
-23.03
-29.31
-37.12
-46.61
-57.32
-67.96
-76.48
-80.44
-77.88
-67.99
-51.56
-30.75
-8.34
13.12
31.97
47.50
59.60
68.38
73.91
76.30
75.95
73.77
71.03
69.08
68.80
70.42
73.39
76.70
79.32
80.52
80.12
78.44
76.06
73.58
71.35
69.37
67.35
64.84
61.49
57.23
52.32
47.33
42.92
39.62
37.58
36.49
35.67
34.25
31.53
27.44
22.74
19.13
18.90
24.31
36.90
56.85
82.84
112.26
141.78
168.01
188.03
199.78
202.29
195.79
181.73
162.34
140.06
116.79
93.58
70.64
48.06
26.29
6.50
-9.89
-21.97
-29.89
-35.00
-39.27
-44.36
-51.00
-58.98
-67.64
-76.56
-85.92
-96.26
-107.88
-120.28
-132.01
-141.15
-146.11
-146.36
-142.78
-137.26
-131.93
-128.21
-126.30
-125.12
-122.89
-117.91
-109.28
-97.25
-83.06
-68.36
-54.64
-42.70
-32.65
-24.13
-16.83
-10.77
-6.32
-3.97
-3.89
-5.75
-8.73
-11.95
-14.79
-17.09
-19.08
-21.10
-23.32
-25.60
-27.64
-29.15
-30.03
-30.45
-30.71
-31.10
-31.78
-32.71
-33.77
-34.80
-35.77
-36.74
-37.90
-39.48
-41.58
-44.08
-46.44
-47.85
-47.34
-44.16
-38.04
-29.32
-18.94
-8.07
2.15
10.85
17.60
22.27
25.02
26.06
25.75
24.48
22.69
20.80
19.12
17.83
16.92
16.28
15.77
15.27
14.70
13.98
12.97
11.49
9.34
6.38
2.63
-1.72
-6.37
-11.03
-15.53
-19.80
-23.91
-27.98
-32.20
-36.72
-41.58
-46.58
-51.16
-54.44
-55.42
-53.31
-47.82
-39.33
-28.75
-17.26
-5.98
4.25
12.90
19.64
24.30
26.85
27.46
26.63
25.00
23.30
22.04
21.35
21.02
20.66
19.89
18.54
16.68
14.50
12.12
9.56
6.70
3.39
-0.38
-4.48
-8.65
-12.59
-16.09
-19.09
-21.67
-24.07
-26.63
-29.73
-33.65
-38.41
-43.53
-48.08
-50.72
-50.15
-45.51
-36.72
-24.54
-10.38
4.18
17.74
29.37
38.62
45.37
49.68
51.71
51.78
50.47
48.54
46.81
45.89
45.94
46.59
47.12
46.76
44.98
41.64
37.02
31.57
25.74
19.78
13.69
7.35
0.63
-6.48
-13.74
-20.80
-27.26
-32.83
-37.46
-41.42
-45.13
-49.17
-54.05
-60.11
-67.29
-75.02
-82.16
-87.17
-88.51
-85.09
-76.80
-64.61
-50.34
-36.13
-23.82
-14.53
-8.57
-5.70
-5.30
-6.71
-9.24
-12.10
-14.49
-15.68
-15.20
-13.03
-9.61
-5.65
-1.92
0.96
2.70
3.27
2.84
1.60
-0.25
-2.64
-5.47
-8.67
-12.10
-15.62
-19.14
-22.67
-26.46
-30.89
-36.44
-43.33
-51.30
-59.33
-65.74
-68.56
-66.18
-57.93
-44.43
-27.39
-9.08
8.35
23.33
35.07
43.34
48.32
50.38
50.06
48.13
45.50
43.06
41.45
40.92
41.34
42.37
43.57
44.65
45.38
45.60
45.14
43.80
41.40
37.84
33.17
27.61
21.48
15.13
8.76
2.43
-4.06
-11.07
-19.04
-28.38
-39.23
-51.26
-63.44
-74.09
-81.13
-82.67
-77.64
-66.25
-50.03
-31.32
-12.58
4.27
18.15
28.73
36.07
40.33
41.78
40.81
38.19
34.91
31.92
29.85
28.77
28.23
27.60
26.35
24.35
21.80
19.06
16.32
13.45
10.09
5.79
0.38
-5.94
-12.66
-19.14
-24.89
-29.79
-34.11
-38.38
-43.25
-49.29
-56.78
-65.51
-74.53
-82.13
-86.11
-84.41
-75.85
-60.69
-40.65
-18.42
3.18
22.01
36.89
47.57
54.32
57.53
57.65
55.22
51.09
46.32
42.04
39.02
37.49
37.06
36.95
36.33
34.66
31.83
28.16
24.08
19.96
15.77
11.23
5.86
-0.64
-8.23
-16.44
-24.58
-32.00
-38.39
-43.90
-49.05
-54.59
-61.17
-69.15
-78.33
-87.77
-95.82
-100.32
-99.19
-91.04
-75.78
-54.88
-31.02
-7.48
12.69
27.44
35.94
38.56
36.53
31.52
25.38
19.81
16.23
15.48
17.74
22.41
28.30
34.04
38.49
40.99
41.41
39.86
36.45
31.17
23.96
14.94
4.58
-6.39
-17.17
-27.21
-36.40
-45.05
-53.76
-63.26
-74.13
-86.56
-100.11
-113.44
-124.44
-130.59
-129.75
-120.85
-104.42
-82.45
-57.70
-33.03
-10.61
8.18
22.66
32.52
37.62
38.16
34.90
29.42
23.91
20.73
21.67
27.36
37.12
49.13
61.07
70.69
76.39
77.49
74.20
67.49
58.86
50.05
42.66
37.75
35.58
35.49
36.21
36.34
34.85
31.34
26.10
19.82
13.48
8.07
4.65
4.13
7.14
13.73
23.28
34.48
45.75
55.67
63.38
68.91
73.08
77.24
82.83
90.84
101.49
114.09
127.25
139.28
148.76
154.80
157.08
155.74
151.09
143.63
134.06
123.44
113.10
104.46
98.71
96.52
97.91
102.21
108.17
114.23
118.79
120.47
118.20
111.17
98.82
81.01
58.28
32.32
5.94
-17.27
-33.80
-41.05
-37.90
-24.67
-2.98
24.72
55.40
85.88
113.45
136.50
155.01
170.24
183.79
196.34
206.91
213.21
212.85
204.64
189.25
168.73
145.27
120.08
93.08
63.51
31.04
-3.49
-38.07
-70.47
-99.46
-125.61
-151.18
-179.27
-212.46
-251.86
-296.56
-343.85
-389.90
-430.51
-461.88
-481.12
-486.63
-478.23
-457.05
-424.92
-383.51
-333.72
-275.51
-208.84
-134.92
-57.29
18.16
84.43
135.69
169.30
186.78
192.91
193.53
192.97
192.66
191.47
187.50
180.35
172.36
168.18
172.73
188.58
214.10
243.50
268.68
282.11
279.41
260.58
229.69
193.21
158.02
129.35
109.61
97.88
90.56
82.79
70.37
51.41
26.96
0.29
-24.82
-45.74
-61.58
-72.60
-78.89
-79.54
-73.04
-58.92
-39.21
-18.63
-3.07
3.00
-1.36
-13.32
-28.02
-41.23
-51.46
-60.16
-70.25
-84.08
-102.00
-122.56
-143.79
-164.71
-185.89
-208.87
-234.76
-262.88
-290.28
-312.36
-324.26
-322.50
-305.97
-276.16
-236.37
-190.64
-142.71
-95.36
-50.18
-7.78
31.87
69.08
104.01
136.30
164.74
187.20
200.95
203.54
193.71
172.20
141.74
106.46
70.80
38.39
11.34
-9.92
-26.35
-39.62
-51.47
-63.27
-75.86
-89.59
-104.50
-120.43
-137.01
-153.58
-169.19
-182.92
-194.15
-202.93
-209.78
-215.27
-219.33
-221.05
-219.05
-212.32
-201.17
-187.33
-173.43
-161.71
-153.10
-146.88
-141.25
-134.42
-125.31
-113.72
-99.75
-83.28
-63.72
-40.33
-12.78
18.63
53.13
90.11
129.29
170.48
212.83
254.39
292.20
323.08
344.53
355.02
354.00
341.30
316.79
280.63
233.61
177.34
113.87
45.24
-26.46
-98.29
-165.53
-221.53
-259.19
-273.51
-263.98
-235.31
-195.79
-154.24
-117.11
-87.16
-64.07
-46.09
-31.73
-20.16
-11.07
-4.16
0.96
4.51
6.34
6.17
4.11
0.81
-2.47
-4.44
-4.20
-1.36
4.26
12.91
24.82
39.57
55.53
69.70
78.59
79.54
71.77
56.74
37.21
16.04
-5.00
-25.50
-45.93
-66.65
-87.34
-106.87
-123.91
-137.60
-147.94
-155.62
-161.31
-164.95
-165.44
-160.94
-149.74
-131.25
-106.52
-78.13
-49.45
-23.46
-1.90
15.05
28.41
39.54
49.37
57.96
64.68
68.82
70.12
69.12
66.88
64.46
62.41
60.46
57.78
53.48
47.22
39.40
31.15
23.88
18.92
17.15
18.88
23.81
30.98
38.86
45.47
48.89
47.86
42.41
34.18
26.10
21.44
22.69
30.49
43.33
58.03
70.86
78.81
80.42
75.95
66.82
54.74
41.12
26.90
12.86
-0.00
-10.36
-16.86
-18.66
-16.00
-10.34
-3.91
0.86
2.07
-1.32
-9.44
-21.70
-37.10
-54.40
-72.29
-89.52
-105.06
-118.28
-129.03
-137.74
-145.33
-152.79
-160.64
-168.28
-173.81
-174.44
-167.40
-151.14
-126.05
-94.55
-60.41
-27.64
0.55
22.22
36.76
44.53
46.42
43.61
37.40
29.05
19.72
10.31
1.46
-6.53
-13.51
-19.59
-24.98
-30.09
-35.42
-41.53
-48.87
-57.62
-67.61
-78.27
-88.75
-98.01
-105.03
-109.01
-109.61
-107.10
-102.44
-96.92
-91.61
-86.78
-81.47
-73.86
-62.06
-45.18
-23.89
-0.32
22.76
42.84
58.29
68.41
73.09
72.71
68.25
61.60
55.55
52.96
55.62
63.17
73.06
81.61
85.50
83.04
74.57
61.87
47.21
32.63
19.60
8.85
0.27
-7.04
-14.53
-23.34
-33.33
-42.43
-46.99
-43.12
-28.30
-2.40
32.45
73.06
116.42
160.31
202.81
241.42
272.49
291.82
296.35
285.93
264.22
238.08
215.34
202.03
200.16
207.08
216.60
221.51
216.05
197.82
168.28
131.93
94.77
62.58
39.60
27.83
26.99
34.97
48.42
63.44
75.96
82.15
78.84
64.24
38.56
4.36
-33.62
-69.63
-98.42
-116.81
-124.42
-123.32
-116.98
-108.79
-101.00
-94.62
-89.87
-87.04
-86.80
-90.09
-97.48
-108.40
-120.95
-132.11
-138.66
-138.18
-130.10
-116.21
-100.45
-87.93
-83.49
-90.13
-107.86
-133.42
-160.90
-183.31
-194.63
-191.67
-175.34
-150.74
-125.89
-108.99
-105.31
-114.97
-132.86
-150.79
-160.80
-158.03
-141.59
-113.44
-76.35
-32.37
17.20
70.82
125.54
176.93
220.03
251.05
268.33
272.16
263.74
244.18
214.44
176.22
133.17
91.21
57.90
40.66
44.79
72.08
120.40
184.38
256.47
328.17
391.18
438.62
466.31
473.92
465.03
446.08
424.07
404.15
388.14
374.59
360.23
341.90
317.85
287.98
253.33
215.19
174.64
132.51
89.62
46.98
5.65
-33.60
-70.42
-104.88
-137.32
-168.17
-197.78
-226.29
-253.36
-277.85
-297.59
-309.59
-310.83
-299.42
-275.72
-242.61
-204.85
-167.55
-134.70
-108.19
-88.00
-73.08
-62.39
-55.34
-51.61
-50.65
-51.28
-51.98
-51.48
-49.35
-46.21
-43.35
-42.02
-42.99
-46.29
-51.34
-57.35
-63.51
-69.24
-74.19
-78.29
-81.65
-84.48
-86.90
-88.95
-90.61
-91.98
-93.34
-94.98
-96.87
-98.42
-98.51
-95.85
-89.55
-79.53
-66.50
-51.76
-36.63
-22.21
-9.21
1.95
10.91
17.43
21.35
22.85
22.46
20.99
19.33
18.15
17.71
17.84
18.11
18.04
17.34
15.96
14.11
12.10
10.31
9.03
8.35
8.15
7.99
7.27
5.40
2.03
-2.73
-8.42
-14.34
-19.82
-24.39
-27.90
-30.45
-32.34
-33.96
-35.76
-38.10
-41.12
-44.53
-47.51
-48.92
-47.64
-43.04
-35.38
-25.75
-15.75
-6.94
-0.40
3.54
5.11
4.87
3.42
1.25
-1.21
-3.55
-5.44
-6.68
-7.40
-8.01
-9.11
-11.19
-14.51
-18.95
-24.06
-29.31
-34.26
-38.71
-42.69
-46.41
-50.16
-54.16
-58.36
-62.47
-65.93
-68.11
-68.56
-67.30
-65.05
-63.09
-62.85
-65.27
-70.23
-76.30
-81.14
-82.22
-77.78
-67.38
-51.85
-32.66
-11.23
11.31
33.98
55.31
73.41
86.41
93.22
93.98
89.99
82.78
73.37
62.01
48.54
33.35
18.00
4.48
-5.28
-9.99
-9.10
-2.44
10.27
28.92
52.88
80.65
108.65
132.19
146.67
148.93
137.89
114.92
81.88
41.23
-4.42
-53.95
-106.43
-159.76
-209.78
-250.57
-275.43
-281.09
-267.62
-238.20
-199.94
-161.22
-129.11
-107.77
-98.35
-98.86
-107.99
-123.84
-133.12
-125.08
-95.87
-51.90
-6.09
23.31
37.15
42.12
46.28
56.22
76.29
104.63
135.53
162.43
180.92
191.37
195.99
198.46
201.77
204.87
203.52
193.18
171.93
141.43
106.20
69.27
32.01
-5.12
-42.18
-78.21
-110.83
-137.32
-156.11
-167.21
-172.99
-176.33
-179.62
-185.37
-196.44
-215.52
-243.43
-277.28
-309.85
-331.66
-334.27
-313.87
-273.04
-219.06
-160.81
-105.03
-54.19
-7.38
38.19
84.28
130.32
173.85
212.90
246.38
274.87
300.43
324.87
350.60
378.89
409.14
439.22
466.62
487.23
496.25
489.84
465.33
424.71
372.82
315.72
260.00
212.73
178.13
156.80
145.92
139.02
131.70
122.38
112.91
95.97
71.27
42.36
13.40
-2.41
-7.75
-5.85
3.11
14.59
27.15
40.14
51.04
56.59
54.92
45.13
30.46
15.07
1.39
-9.75
-18.34
-25.57
-32.82
-40.96
-51.82
-66.07
-84.93
-110.62
-144.87
-187.62
-237.20
-289.94
-340.44
-383.38
-413.25
-426.64
-423.63
-407.24
-382.09
-352.87
-322.32
-290.36
-255.17
-214.06
-165.85
-112.18
-56.90
-4.73
40.59
77.48
106.56
129.31
146.78
158.33
161.44
152.86
130.26
93.72
46.37
-6.19
-57.33
-101.04
-133.38
-153.16
-161.66
-161.47
-155.21
-144.23
-128.33
-106.20
-76.51
-38.71
6.73
58.61
115.20
174.12
231.76
282.83
320.88
339.88
336.34
311.09
269.73
221.30
175.80
141.53
122.67
118.31
122.73
127.18
122.30
100.86
59.94
2.06
-65.21
-131.14
-184.49
-216.33
-222.23
-203.13
-164.90
-116.53
-67.78
-26.52
2.83
19.71
26.48
26.64
23.31
18.30
12.40
6.19
0.66
-2.83
-3.54
-2.52
-2.93
-9.07
-24.39
-49.71
-82.40
-117.15
-147.58
-168.07
-174.95
-166.92
-144.79
-111.02
-68.94
-21.99
26.76
74.66
118.92
156.13
182.21
193.62
189.03
170.56
143.55
114.64
89.29
69.99
56.29
46.43
39.30
35.61
37.29
45.94
61.18
80.12
98.22
110.91
115.06
109.80
96.27
76.83
54.09
30.28
7.08
-14.35
-33.17
-48.68
-60.36
-67.94
-71.34
-70.79
-66.78
-60.12
-51.99
-43.80
-37.00
-32.78
-31.83
-34.32
-39.96
-48.25
-58.55
-70.20
-82.48
-94.67
-106.01
-115.73
-122.94
-126.71
-126.21
-120.94
-111.11
-97.72
-82.52
-67.60
-54.92
-45.95
-41.55
-41.79
-46.06
-52.90
-60.18
-65.40
-66.15
-60.66
-48.16
-29.02
-4.67
22.45
49.23
72.38
89.17
98.23
99.91
96.10
89.26
81.47
73.78
66.25
58.54
50.56
42.60
35.11
28.25
21.76
15.33
9.10
3.93
1.09
1.58
5.55
12.19
20.16
28.27
35.82
42.55
48.24
52.46
54.64
54.46
52.22
49.02
46.26
45.21
46.40
49.37
52.72
54.42
52.18
44.08
29.03
7.34
-19.21
-47.59
-74.31
-96.29
-111.69
-120.26
-123.12
-122.14
-119.28
-115.86
-112.33
-108.35
-103.08
-95.64
-85.44
-72.36
-56.70
-39.09
-20.31
-1.18
17.71
36.04
53.74
70.77
86.86
101.33
113.16
121.44
125.79
126.71
125.38
123.24
121.34
120.03
119.00
117.47
114.51
109.15
100.58
88.38
72.82
54.96
36.45
18.80
2.75
-12.13
-27.17
-43.74
-62.45
-82.65
-102.55
-119.85
-132.36
-138.60
-138.02
-131.13
-119.42
-105.16
-91.00
-79.12
-70.60
-65.12
-61.19
-56.90
-50.65
-41.70
-30.07
-16.25
-0.83
15.65
32.50
48.71
62.98
74.03
81.20
84.73
85.77
85.82
85.96
86.30
85.90
83.41
77.87
69.40
59.24
49.09
40.31
33.23
27.29
21.56
15.23
7.84
-1.04
-12.10
-26.14
-43.55
-63.69
-84.65
-103.77
-118.61
-127.76
-131.22
-129.89
-124.84
-116.83
-106.27
-93.60
-79.79
-66.58
-56.05
-50.03
-49.38
-53.47
-60.18
-66.48
-69.68
-68.76
-65.37
-63.56
-68.35
-83.62
-110.27
-145.61
-184.43
-221.00
-251.17
-273.44
-288.89
-299.93
-308.84
-316.65
-322.74
-325.13
-321.33
-309.21
-287.76
-257.39
-219.86
-177.65
-133.17
-88.23
-43.90
-0.85
40.28
78.68
113.75
145.62
175.37
204.48
233.70
262.09
286.79
304.17
311.42
308.12
296.60
281.11
266.09
254.63
247.75
244.64
243.44
241.84
237.55
228.41
212.59
189.20
158.95
124.52
90.03
59.92
37.38
23.38
16.44
13.42
10.63
4.67
-7.05
-26.02
-52.18
-83.54
-116.12
-144.85
-165.39
-175.85
-177.56
-174.13
-169.18
-164.29
-158.29
-148.71
-134.19
-116.20
-98.77
-86.28
-80.65
-79.78
-78.41
-70.77
-53.53
-27.47
2.98
32.01
55.08
70.65
80.18
86.75
93.04
100.05
107.08
112.75
116.18
117.37
116.76
114.42
109.70
101.79
90.91
79.12
70.04
67.40
73.11
86.15
102.95
119.15
131.63
139.72
144.97
149.82
156.10
164.34
174.00
184.25
194.53
204.53
213.62
220.47
223.04
219.28
208.07
189.92
166.79
141.44
116.24
92.46
70.12
48.47
26.75
4.69
-17.33
-38.48
-57.74
-74.09
-86.57
-94.43
-97.28
-95.34
-89.56
-81.38
-72.45
-64.03
-56.73
-50.44
-44.67
-38.94
-33.10
-27.25
-21.50
-15.75
-9.77
-3.50
2.52
6.97
8.13
4.57
-4.01
-16.40
-30.20
-42.62
-51.58
-56.32
-57.46
-56.46
-54.95
-54.24
-55.03
-57.41
-60.85
-64.17
-65.62
-63.23
-55.32
-41.17
-21.37
2.21
27.02
50.50
70.66
86.18
96.24
100.14
97.14
86.56
68.33
43.70
15.52
-11.92
-33.92
-46.65
-48.47
-40.42
-26.02
-10.30
1.64
5.98
1.45
-10.40
-25.59
-39.05
-46.10
-43.72
-30.99
-8.85
20.39
53.54
86.66
115.32
135.32
143.85
140.63
128.04
110.17
90.71
71.21
50.62
26.38
-3.65
-39.52
-78.93
-118.16
-153.78
-183.98
-208.97
-230.20
-249.20
-266.38
-280.66
-289.82
-291.51
-284.25
-268.14
-244.76
-216.48
-185.57
-153.60
-121.31
-89.02
-57.13
-26.57
1.25
24.65
42.25
53.15
57.39
55.94
50.68
44.17
39.36
39.06
45.39
59.30
80.35
106.87
136.36
166.21
194.30
219.30
240.75
258.54
272.41
281.55
284.77
281.18
270.89
255.58
238.16
221.82
208.75
199.36
192.25
185.02
175.40
162.16
145.34
126.01
105.83
86.75
70.68
59.09
52.46
49.69
48.01
43.71
33.34
15.09
-10.63
-41.47
-74.30
-106.50
-136.67
-164.56
-190.42
-214.32
-235.82
-254.12
-268.55
-278.97
-285.69
-289.31
-290.16
-288.04
-282.17
-271.53
-255.48
-234.30
-209.48
-183.42
-158.88
-138.07
-122.11
-110.81
-103.06
-97.32
-92.21
-86.65
-79.87
-71.23
-60.20
-46.46
-30.15
-12.01
6.61
23.95
38.23
48.01
52.48
51.68
46.36
37.81
27.48
16.68
6.37
-2.95
-11.20
-18.68
-25.92
-33.55
-42.04
-51.33
-60.65
-68.57
-73.22
-72.83
-66.25
-53.19
-34.41
-11.51
13.29
37.55
59.00
75.87
87.22
92.94
93.70
90.60
84.84
77.45
69.23
60.79
52.64
45.25
38.88
33.57
29.09
25.04
21.08
17.09
13.21
9.76
6.95
4.80
3.04
1.35
-0.47
-2.45
-4.60
-7.02
-10.02
-13.84
-18.32
-22.61
-25.18
-24.36
-19.04
-9.21
3.96
18.58
32.70
44.89
54.40
61.02
64.80
65.86
64.42
60.87
55.87
50.25
44.79
40.08
36.33
33.40
30.95
28.59
26.07
23.25
20.13
16.70
12.89
8.61
3.85
-1.16
-5.95
-9.95
-12.73
-14.21
-14.74
-14.93
-15.39
-16.57
-18.72
-21.84
-25.70
-29.62
-32.38
-32.27
-27.56
-17.05
-0.64
20.59
44.77
69.93
94.56
117.59
138.03
154.33
164.27
165.58
156.96
139.04
114.58
87.62
62.05
40.23
22.49
7.51
-6.44
-20.41
-34.23
-46.96
-57.69
-66.34
-73.86
-81.78
-91.39
-103.14
-116.42
-129.95
-142.44
-153.24
-162.57
-171.15
-179.70
-188.26
-195.89
-200.86
-201.17
-195.31
-182.77
-164.24
-141.34
-116.18
-90.82
-66.98
-45.86
-28.11
-13.92
-3.03
5.19
11.58
17.03
22.33
28.02
34.28
40.92
47.49
53.42
58.23
61.76
64.14
65.79
67.12
68.34
69.30
69.50
68.29
65.17
60.01
53.24
45.71
38.42
32.15
27.13
23.01
18.95
14.11
7.90
0.33
-8.03
-16.07
-22.30
-25.01
-22.58
-13.93
1.12
21.63
45.83
71.55
96.90
120.50
141.46
159.11
172.70
181.56
185.34
184.50
180.31
174.57
168.91
164.27
160.58
157.00
152.40
146.02
137.82
128.46
119.00
110.49
103.66
98.84
96.03
94.82
94.12
92.04
86.10
74.01
54.70
29.10
0.11
-28.42
-53.05
-72.02
-85.54
-95.21
-102.83
-109.45
-115.02
-118.84
-120.25
-119.18
-116.33
-112.90
-110.16
-109.05
-110.06
-113.14
-117.90
-123.91
-130.84
-138.48
-146.71
-155.37
-164.22
-173.04
-181.65
-189.98
-198.08
-205.96
-213.59
-220.79
-227.39
-233.21
-238.22
-242.28
-245.14
-246.30
-244.99
-240.07
-229.95
-212.91
-187.32
-152.66
-109.69
-61.01
-10.65
36.91
78.15
111.44
136.83
155.63
168.99
178.24
184.18
187.33
187.86
185.68
180.65
172.28
160.98
147.67
135.36
127.71
127.60
135.23
147.94
161.54
171.53
176.44
177.21
178.32
184.79
200.07
224.12
254.57
288.47
322.77
356.47
376.74
371.46
334.35
270.80
194.67
120.97
63.66
18.93
-20.42
-61.27
-105.57
-151.17
-191.06
-218.79
-230.32
-226.05
-211.66
-194.23
-181.58
-178.27
-185.82
-202.40
-225.31
-249.90
-270.48
-282.28
-281.29
-267.25
-242.54
-212.41
-174.94
-132.26
-86.81
-40.93
2.18
39.15
63.97
75.70
75.24
65.38
48.44
26.68
1.49
-26.45
-55.45
-83.71
-105.29
-115.60
-112.72
-98.52
-75.36
-45.11
-12.13
23.75
61.58
99.03
132.92
161.41
181.55
192.40
193.68
185.38
169.51
148.97
128.23
112.21
105.00
107.61
118.12
130.73
137.91
134.60
117.87
87.72
46.91
0.43
-45.55
-82.48
-102.04
-106.22
-100.90
-91.72
-85.23
-86.42
-97.25
-116.56
-140.23
-165.19
-190.13
-208.42
-214.33
-203.44
-173.19
-123.80
-63.93
1.76
66.27
121.74
164.02
191.31
206.18
214.89
224.03
237.00
253.33
267.93
274.87
271.30
257.68
237.35
214.56
192.33
171.43
151.25
129.72
105.22
77.54
46.77
12.63
-25.69
-68.72
-115.17
-160.43
-197.96
-221.25
-226.47
-214.57
-190.55
-160.72
-129.71
-98.82
-66.33
-30.18
10.15
53.07
95.71
135.54
171.05
201.17
224.24
237.56
238.19
224.83
199.47
167.59
136.47
112.47
98.52
93.29
92.26
90.07
82.89
69.64
51.79
31.90
12.03
-7.30
-27.16
-49.48
-76.00
-107.24
-142.05
-177.62
-210.04
-235.40
-250.82
-255.37
-250.17
-237.87
-221.67
-204.30
-187.49
-171.94
-157.70
-144.59
-132.61
-122.00
-113.15
-106.36
-101.52
-97.92
-94.22
-88.74
-79.94
-66.83
-49.10
-27.21
-2.30
23.86
49.01
70.79
87.25
97.43
101.65
101.30
98.33
94.55
91.15
88.50
86.35
84.01
80.72
75.90
69.49
62.12
54.90
48.96
44.84
42.12
39.63
35.93
29.99
21.50
10.88
-1.09
-13.52
-25.68
-36.95
-46.80
-54.79
-60.73
-64.79
-67.66
-70.27
-73.49
-77.74
-82.76
-87.66
-91.25
-92.44
-90.73
-86.32
-80.06
-73.03
-66.25
-60.37
-55.74
-52.55
-50.95
-51.05
-52.85
-56.12
-60.38
-65.08
-69.73
-74.03
-77.83
-81.10
-83.77
-85.80
-87.23
-88.27
-89.37
-91.09
-93.95
-98.17
-103.48
-109.05
-113.58
-115.78
-114.90
-111.23
-105.99
-100.82
-96.73
-93.33
-88.53
-79.28
-62.90
-38.45
-7.53
26.11
58.01
84.67
104.83
119.49
130.94
141.20
150.91
159.21
164.51
165.67
162.72
156.65
148.63
139.19
128.11
115.06
100.45
85.78
73.09
63.86
58.15
54.55
50.93
45.71
38.65
30.85
23.85
18.67
15.29
12.86
10.55
8.32
7.30
9.24
15.56
26.27
39.43
51.44
58.07
55.87
43.34
21.39
-7.05
-37.92
-66.95
-90.25
-104.76
-108.50
-101.12
-84.33
-61.73
-38.11
-18.01
-4.29
2.63
4.48
4.16
4.42
7.05
12.59
20.61
30.06
39.59
47.87
53.77
56.77
57.06
55.57
53.52
52.09
52.01
53.33
55.30
56.57
55.53
51.07
43.15
33.05
22.95
14.90
9.69
6.36
2.61
-4.01
-14.76
-28.96
-44.32
-57.90
-67.35
-71.65
-71.24
-67.58
-62.53
-57.87
-54.89
-54.24
-55.96
-59.51
-64.02
-68.52
-72.27
-74.89
-76.31
-76.59
-75.64
-73.17
-68.86
-62.67
-55.16
-47.48
-41.01
-36.74
-34.77
-34.25
-33.85
-32.53
-30.21
-27.89
-27.27
-29.87
-36.32
-46.05
-57.58
-69.08
-78.93
-86.06
-89.85
-90.02
-86.41
-79.08
-68.50
-55.62
-41.89
-28.97
-18.36
-11.21
-8.33
-10.30
-17.56
-30.35
-48.32
-70.33
-94.36
-117.78
-137.90
-152.54
-160.41
-161.37
-156.47
-147.73
-137.72
-128.91
-123.09
-120.83
-121.40
-123.03
-123.41
-120.19
-111.22
-94.86
-70.22
-37.53
1.55
43.99
86.09
124.33
156.24
180.68
197.55
207.33
210.63
208.09
200.50
189.06
175.44
161.63
149.70
141.38
137.76
138.89
143.72
150.24
156.04
158.99
157.74
151.94
141.93
128.41
112.16
94.01
74.96
56.05
38.20
22.04
7.83
-4.33
-14.36
-22.18
-27.82
-31.69
-34.56
-37.24
-40.13
-43.02
-45.23
-45.89
-44.29
-39.99
-32.90
-23.35
-12.32
-1.64
6.41
9.84
7.85
1.38
-7.26
-15.24
-20.41
-21.83
-19.66
-14.56
-7.20
1.90
12.08
22.45
32.00
40.25
47.63
55.45
65.39
78.90
96.63
118.28
142.63
167.66
190.58
208.23
217.75
217.43
207.50
190.24
169.22
147.87
128.28
110.76
94.34
77.95
61.37
45.47
31.49
20.08
10.64
1.56
-8.86
-21.23
-34.58
-46.66
-55.22
-59.15
-59.17
-57.44
-56.38
-57.45
-60.46
-63.86
-65.65
-64.41
-60.01
-53.54
-46.64
-40.81
-36.77
-34.44
-33.13
-31.95
-30.09
-27.04
-22.67
-17.40
-12.12
-8.00
-6.11
-6.85
-9.78
-13.67
-17.03
-18.71
-18.32
-16.23
-13.27
-10.20
-7.41
-4.76
-1.70
2.57
8.80
17.39
28.03
39.51
49.75
56.24
56.77
50.19
36.82
18.52
-1.88
-21.11
-36.17
-44.64
-45.01
-36.89
-21.27
-0.67
21.11
39.68
51.18
53.32
45.99
31.19
12.38
-6.60
-22.60
-33.95
-40.95
-45.77
-51.90
-63.05
-81.71
-108.32
-141.03
-176.61
-211.56
-243.17
-269.78
-290.43
-304.39
-311.05
-310.19
-302.31
-288.62
-270.48
-248.85
-224.02
-195.96
-164.85
-131.44
-96.82
-61.80
-26.41
10.20
49.37
92.26
139.31
189.56
240.26
286.96
324.55
348.99
359.11
357.02
346.90
332.46
314.59
290.73
256.42
208.09
145.39
71.92
-6.14
-82.07
-150.38
-207.57
-252.03
-283.81
-304.28
-315.79
-320.66
-320.10
-313.32
-297.88
-271.08
-231.41
-179.44
-117.85
-50.61
18.21
85.16
147.85
204.80
255.32
299.34
337.06
368.63
393.86
412.32
423.87
429.25
430.12
428.33
424.79
418.29
405.44
381.78
343.81
290.66
224.88
151.65
77.17
6.90
-55.49
-107.98
-149.68
-180.59
-201.74
-215.59
-225.81
-236.32
-249.65
-265.58
-280.71
-289.50
-286.31
-267.74
-234.17
-189.89
-141.70
-96.62
-59.54
-31.70
-10.77
7.69
27.92
51.78
77.79
101.69
118.28
123.60
116.48
98.78
74.27
46.94
19.40
-7.68
-35.06
-63.76
-93.56
-122.43
-146.89
-163.23
-168.88
-163.29
-147.95
-126.11
-102.10
-80.63
-65.80
-59.98
-62.69
-70.19
-76.31
-74.52
-60.55
-34.28
0.04
35.40
64.71
83.31
90.13
87.26
78.40
67.16
55.97
45.90
37.16
29.85
24.39
21.48
21.60
24.51
28.94
32.89
34.25
31.57
24.47
13.62
0.28
-14.29
-29.23
-44.15
-59.09
-74.31
-90.00
-106.07
-121.94
-136.42
-148.11
-155.85
-159.38
-159.43
-157.33
-154.07
-149.60
-142.62
-131.14
-113.57
-89.71
-60.96
-29.89
0.70
28.60
52.50
71.72
85.83
94.39
97.23
94.93
89.08
82.14
76.55
73.78
73.68
74.63
74.38
71.22
64.72
55.84
46.14
36.91
28.57
20.62
12.22
2.84
-7.38
-17.52
-26.33
-32.54
-35.14
-33.47
-27.27
-16.65
-2.11
15.52
35.02
54.98
73.85
90.16
102.70
110.67
113.77
112.27
106.92
98.76
88.98
78.72
68.94
60.44
53.73
49.10
46.56
45.80
46.21
46.90
46.90
45.43
42.12
37.20
31.43
25.81
21.21
18.12
16.41
15.29
13.45
9.35
1.70
-10.00
-25.14
-42.05
-58.48
-72.22
-81.89
-87.17
-88.66
-87.41
-84.55
-81.00
-77.49
-74.56
-72.53
-71.47
-71.10
-70.97
-70.69
-70.19
-69.74
-69.88
-71.28
-74.56
-80.14
-88.15
-98.37
-110.23
-122.97
-135.80
-148.19
-159.86
-170.63
-180.30
-188.45
-194.61
-198.43
-199.71
-198.40
-194.56
-188.43
-180.62
-172.16
-164.28
-157.81
-152.51
-146.85
-138.57
-125.56
-106.89
-83.11
-55.96
-27.50
0.43
26.50
49.74
69.31
84.61
95.49
102.56
107.11
110.78
114.96
120.33
126.79
133.58
139.61
143.86
145.66
144.86
141.90
137.73
133.60
130.77
130.07
131.59
134.51
137.31
138.18
135.61
128.87
118.18
104.44
88.66
71.74
54.41
37.74
23.44
13.89
11.51
17.82
32.72
54.34
79.68
105.56
129.47
149.92
166.31
178.54
186.71
191.02
191.84
189.79
185.60
179.94
173.12
165.00
155.14
143.00
128.39
111.66
93.75
75.99
59.82
46.45
36.61
30.51
27.91
28.28
30.90
34.99
39.64
43.86
46.61
47.03
44.66
39.74
33.40
27.49
24.09
24.94
30.94
41.86
56.55
73.32
90.35
106.05
119.17
128.83
134.40
135.41
131.44
122.04
106.81
85.67
59.29
29.36
-1.46
-30.13
-54.04
-71.84
-83.65
-90.74
-94.67
-96.70
-97.44
-97.06
-95.74
-93.90
-92.13
-90.94
-90.60
-91.15
-92.49
-94.49
-96.94
-99.42
-101.38
-102.36
-102.27
-101.58
-101.16
-101.94
-104.60
-109.35
-115.91
-123.40
-130.30
-134.15
-131.82
-120.12
-96.97
-62.41
-19.19
27.67
72.06
108.25
132.29
142.58
140.10
128.00
110.94
94.21
82.79
80.32
88.31
105.98
130.58
158.34
185.48
208.94
226.73
238.04
243.06
242.71
238.32
231.18
222.24
211.83
199.75
185.51
168.68
149.34
128.13
106.40
86.00
69.17
58.13
54.58
59.08
70.61
86.49
102.73
115.10
120.20
116.34
103.89
84.73
61.29
35.43
8.02
-20.80
-50.67
-80.46
-108.20
-131.87
-150.32
-163.89
-174.30
-184.00
-195.41
-210.27
-229.49
-252.89
-278.89
-304.21
-323.94
-332.35
-324.59
-298.47
-255.63
-201.26
-142.17
-84.19
-30.18
20.51
70.81
123.34
178.22
232.10
279.19
313.60
331.74
333.58
322.18
301.90
276.52
248.09
216.83
182.18
143.96
103.27
62.63
25.29
-5.87
-29.34
-45.47
-56.18
-64.08
-71.37
-79.17
-87.44
-95.49
-102.69
-108.88
-114.18
-118.48
-121.05
-120.75
-116.75
-109.22
-99.59
-90.18
-83.20
-80.09
-81.19
-86.27
-95.11
-107.77
-124.27
-143.94
-164.97
-184.58
-199.96
-209.18
-211.88
-209.20
-203.16
-195.82
-188.61
-181.87
-174.87
-166.23
-154.50
-138.79
-118.90
-95.07
-67.28
-34.80
3.65
48.87
99.77
152.55
201.24
239.48
262.86
270.38
264.26
248.28
225.83
198.98
168.95
137.39
107.20
82.02
64.55
54.92
50.15
45.27
35.45
18.06
-6.68
-36.26
-67.43
-97.28
-123.65
-144.91
-159.61
-166.62
-165.61
-157.58
-144.75
-130.03
-116.21
-105.30
-98.33
-95.45
-96.06
-98.97
-102.47
-104.53
-103.23
-97.28
-86.48
-71.85
-55.34
-39.35
-26.02
-16.80
-12.09
-11.29
-13.22
-16.54
-20.26
-23.88
-27.36
-30.79
-34.20
-37.61
-41.16
-45.34
-50.91
-58.57
-68.50
-80.04
-91.68
-101.47
-107.63
-108.98
-105.35
-97.46
-86.83
-75.36
-65.01
-57.31
-52.99
-51.80
-52.58
-53.66
-53.31
-50.16
-43.47
-33.32
-20.65
-7.14
5.10
14.06
18.42
18.09
14.12
8.23
2.03
-3.83
-9.89
-17.49
-28.07
-42.33
-59.85
-79.13
-98.10
-114.68
-127.44
-136.01
-141.34
-145.47
-151.00
-160.10
-173.63
-190.43
-207.48
-220.73
-226.58
-223.15
-211.03
-192.98
-173.00
-155.02
-141.90
-135.09
-134.81
-140.35
-150.33
-162.73
-174.90
-183.88
-186.95
-182.34
-169.64
-149.66
-123.90
-93.94
-61.06
-26.08
10.29
47.29
84.15
120.29
155.66
191.03
228.00
268.54
314.11
364.53
417.04
466.10
504.38
524.88
523.23
499.38
457.63
405.14
349.50
296.51
249.20
208.08
172.51
141.98
116.93
98.61
88.36
86.59
92.03
101.47
110.38
114.18
109.73
96.35
75.98
52.24
29.04
9.39
-5.11
-14.06
-17.78
-17.12
-13.54
-9.27
-7.03
-9.24
-16.89
-29.01
-42.99
-55.76
-65.02
-70.04
-71.51
-70.86
-69.48
-68.20
-67.33
-66.91
-67.12
-68.44
-71.66
-77.64
-86.79
-98.71
-111.98
-124.62
-134.80
-141.71
-145.84
-148.43
-150.51
-151.91
-151.14
-146.15
-135.44
-118.88
-97.71
-73.85
-49.05
-24.36
-0.23
23.04
45.11
65.67
84.80
103.30
122.52
143.76
167.54
193.08
218.36
240.64
257.16
265.93
266.25
258.74
245.10
227.64
208.64
189.56
170.77
151.59
130.87
107.53
80.98
51.11
18.09
-17.93
-56.92
-98.52
-141.26
-182.11
-216.77
-240.92
-251.58
-248.45
-234.08
-213.41
-191.85
-173.30
-158.75
-146.43
-133.62
-118.00
-98.89
-77.08
-55.01
-35.11
-18.59
-4.95
7.43
19.24
30.51
40.68
49.87
57.35
62.22
63.69
61.50
55.75
45.61
30.98
12.99
-4.90
-20.87
-34.74
-47.89
-62.15
-79.26
-102.02
-131.75
-167.58
-204.91
-240.44
-272.02
-298.79
-320.03
-324.87
-307.43
-269.24
-229.91
-196.89
-173.87
-160.59
-159.08
-169.85
-190.50
-217.20
-243.69
-262.44
-264.96
-247.71
-211.68
-161.43
-102.49
-40.26
19.58
72.89
117.59
154.81
185.13
208.95
226.67
239.46
249.03
256.38
262.42
268.09
274.90
282.63
289.68
293.45
291.64
282.86
266.68
244.13
217.31
188.97
160.83
133.51
106.87
80.76
55.25
30.23
5.24
-20.57
-47.78
-76.21
-104.01
-127.76
-143.28
-147.14
-138.16
-117.98
-90.52
-60.57
-32.31
-8.42
9.83
21.96
27.59
26.36
18.27
4.24
-13.70
-32.89
-50.84
-66.02
-78.22
-88.27
-97.37
-106.45
-115.86
-125.37
-134.50
-142.71
-149.38
-153.70
-154.77
-151.64
-143.50
-130.12
-112.30
-91.97
-71.94
-55.07
-43.12
-35.85
-30.81
-24.13
-12.10
7.43
34.17
65.69
98.44
129.05
155.16
175.68
190.43
199.75
204.30
204.94
202.83
199.23
195.32
191.96
189.53
187.87
186.41
184.44
181.31
176.69
170.66
163.72
156.53
149.65
143.36
137.58
132.07
126.61
121.15
115.82
110.70
105.67
100.33
94.34
87.89
82.13
79.21
81.77
91.94
110.37
135.75
165.09
194.64
221.03
242.12
257.24
266.98
272.65
275.80
277.84
279.68
281.17
280.74
275.35
261.21
235.05
195.47
143.92
84.38
22.24
-37.50
-91.54
-138.72
-179.57
-215.31
-246.95
-274.98
-299.40
-320.07
-336.83
-349.59
-358.18
-362.59
-363.16
-360.83
-356.96
-352.78
-348.58
-343.21
-334.19
-318.58
-294.14
-260.36
-218.81
-172.66
-125.70
-81.31
-41.89
-8.74
17.70
37.57
51.46
60.41
65.86
69.40
72.41
75.63
78.98
81.76
83.12
82.49
79.85
75.66
70.54
65.01
59.24
53.14
46.50
39.23
31.43
23.44
15.66
8.38
1.63
-4.85
-11.54
-19.01
-27.76
-37.89
-48.96
-59.80
-68.64
-73.47
-72.61
-65.28
-51.93
-34.16
-14.23
5.63
23.76
39.29
51.96
61.73
68.63
72.60
73.69
72.29
69.11
65.05
60.91
57.17
53.88
50.82
47.66
44.19
40.33
36.07
31.35
26.05
19.96
12.95
5.02
-3.62
-12.61
-21.50
-29.90
-37.55
-44.38
-50.50
-56.19
-61.83
-67.75
-74.10
-80.59
-86.36
-89.99
-89.79
-84.30
-72.77
-55.57
-34.19
-10.76
12.44
33.61
51.65
66.08
76.75
83.65
86.89
86.83
84.30
80.46
76.57
73.55
71.67
70.58
69.55
67.88
65.27
61.83
58.00
54.16
50.43
46.63
42.39
37.39
31.55
25.11
18.47
12.08
6.25
1.09
-3.45
-7.63
-11.84
-16.60
-22.38
-29.41
-37.37
-45.19
-51.22
-53.68
-51.32
-43.92
-32.47
-18.78
-4.85
7.68
17.90
25.52
30.65
33.59
34.69
34.39
33.32
32.11
31.26
31.01
31.22
31.64
32.08
32.59
33.42
34.79
36.62
38.37
39.21
38.22
34.85
29.12
21.63
13.27
4.89
-3.03
-10.42
-17.53
-24.69
-32.13
-39.98
-48.17
-56.41
-64.06
-70.17
-73.49
-72.91
-67.87
-58.64
-46.43
-32.96
-19.98
-8.77
0.04
6.45
10.82
13.61
15.31
16.38
17.33
18.67
20.85
24.12
28.45
33.57
39.01
44.33
49.10
53.05
55.97
57.73
58.29
57.67
55.97
53.32
49.86
45.68
40.76
35.00
28.26
20.36
11.22
1.05
-9.50
-19.21
-26.45
-29.67
-27.87
-21.07
-10.46
2.05
14.42
25.08
33.27
38.93
42.37
43.93
43.84
42.28
39.59
36.35
33.28
31.04
29.98
30.04
30.84
31.83
32.62
33.02
33.12
33.10
33.13
33.16
32.94
32.13
30.40
27.62
23.86
19.33
14.23
8.63
2.44
-4.55
-12.47
-21.15
-30.00
-37.96
-43.63
-45.75
-43.53
-37.07
-27.36
-16.08
-5.01
4.41
11.54
16.35
19.23
20.46
20.14
18.32
15.26
11.61
8.25
5.88
4.64
4.03
3.23
1.50
-1.34
-4.90
-8.58
-12.05
-15.60
-20.10
-26.54
-35.62
-47.38
-61.19
-75.96
-90.55
-104.05
-116.02
-126.46
-135.76
-144.52
-153.37
-162.72
-172.50
-181.90
-189.33
-192.73
-190.15
-180.57
-164.32
-143.08
-119.30
-95.36
-72.91
-52.62
-34.52
-18.51
-4.69
6.55
14.92
20.51
23.89
25.94
27.52
29.14
30.93
32.73
34.28
35.47
36.26
36.75
36.98
36.85
36.08
34.27
31.01
26.08
19.58
12.00
4.09
-3.41
-10.01
-15.69
-20.87
-26.25
-32.50
-40.04
-48.81
-58.11
-66.63
-72.64
-74.43
-70.79
-61.49
-47.41
-30.32
-12.27
4.96
20.17
32.79
42.51
49.09
52.35
52.42
50.06
46.67
43.87
42.95
44.31
47.33
50.67
52.88
53.00
50.82
46.88
42.15
37.64
34.00
31.30
28.98
26.14
21.76
15.22
6.49
-3.87
-14.88
-25.54
-35.11
-43.37
-50.61
-57.64
-65.51
-75.21
-87.13
-100.70
-114.20
-125.10
-130.81
-129.54
-121.00
-106.46
-88.22
-68.78
-50.15
-33.44
-19.04
-6.95
2.92
10.70
16.77
21.94
27.42
34.50
43.96
55.73
68.82
81.84
93.59
103.58
112.09
119.79
127.16
134.11
139.97
143.80
144.94
143.31
139.44
134.19
128.45
122.90
118.00
114.20
111.76
110.49
109.26
105.82
97.31
81.38
57.28
26.41
-8.24
-43.19
-75.61
-103.61
-125.73
-140.29
-145.09
-138.05
-118.48
-88.10
-51.10
-13.05
20.85
47.18
64.80
74.14
76.19
71.56
60.38
42.88
20.22
-5.20
-29.89
-50.05
-62.36
-64.51
-55.40
-35.02
-4.51
33.71
75.72
116.53
151.14
176.03
190.34
195.98
196.51
195.31
194.27
193.51
192.18
189.59
185.85
181.46
176.41
169.39
157.79
138.66
110.00
72.00
27.41
-18.99
-61.72
-96.14
-119.96
-133.99
-141.90
-149.14
-161.51
-183.60
-217.71
-262.96
-314.93
-365.90
-406.01
-425.59
-418.07
-382.40
-324.10
-253.92
-184.53
-126.43
-84.71
-58.15
-40.53
-23.79
-1.54
28.46
63.62
97.86
124.21
137.78
137.60
126.65
110.07
93.21
80.20
73.08
71.91
75.14
80.54
85.98
90.00
92.14
93.06
94.80
99.71
109.59
124.89
145.45
170.85
200.29
231.80
261.47
284.50
295.67
291.10
268.93
230.94
181.65
126.10
67.71
8.24
-49.31
-99.55
-134.77
-149.17
-140.69
-113.59
-77.71
-45.33
-32.73
-48.54
-88.97
-139.16
-185.55
-222.16
-250.82
-274.65
-293.25
-300.88
-289.80
-256.07
-201.79
-136.78
-71.22
-13.69
32.85
71.06
107.08
147.29
188.46
234.32
274.84
299.92
302.88
283.19
245.30
197.23
147.67
102.56
64.51
30.91
-1.08
-32.95
-63.92
-93.44
-121.09
-147.70
-175.40
-206.02
-241.67
-281.91
-323.98
-363.48
-397.29
-421.86
-433.71
-430.21
-410.22
-375.79
-331.17
-281.45
-222.41
-156.69
-90.47
-30.62
18.70
56.02
85.23
110.10
133.87
159.14
183.77
205.37
222.01
232.88
238.46
240.26
239.54
237.76
235.69
231.24
222.10
206.08
181.95
149.87
111.76
70.36
28.75
-7.47
-33.97
-48.85
-53.99
-53.54
-51.54
-50.67
-54.70
-64.02
-77.74
-94.54
-111.01
-122.36
-124.60
-117.12
-101.23
-84.66
-76.03
-78.26
-88.95
-99.33
-100.24
-88.83
-70.05
-52.17
-40.85
-34.22
-25.39
-8.68
16.36
44.27
67.72
83.18
92.59
101.24
115.48
138.16
165.78
189.89
200.71
191.45
160.93
113.33
55.33
-5.70
-61.07
-103.32
-127.17
-130.09
-112.54
-77.89
-29.50
24.13
73.17
109.32
127.59
126.20
105.69
69.25
23.03
-24.81
-67.67
-101.88
-127.85
-149.40
-171.90
-199.28
-231.26
-262.67
-285.05
-290.25
-268.14
-216.45
-141.29
-55.62
24.64
85.57
118.76
122.73
102.09
66.27
26.57
-5.23
-18.81
-7.01
32.76
97.44
178.51
263.51
338.90
392.53
416.81
409.91
375.52
321.41
257.12
191.93
133.37
86.41
52.77
31.09
17.33
5.81
-8.69
-28.61
-52.24
-74.23
-88.14
-90.08
-81.04
-66.75
-55.45
-54.17
-65.90
-88.84
-117.81
-146.66
-170.15
-184.99
-190.19
-187.15
-179.64
-173.42
-174.73
-188.06
-213.83
-247.54
-281.05
-305.66
-315.34
-308.52
-287.50
-256.40
-218.99
-177.82
-134.82
-92.39
-53.74
-22.03
1.15
16.74
28.11
39.85
55.96
78.59
107.52
140.50
174.02
204.20
227.85
243.24
250.56
251.49
248.20
242.18
233.61
221.73
206.09
187.92
170.47
158.02
153.77
158.00
167.35
176.08
178.60
171.99
157.13
137.91
118.77
102.34
88.15
73.39
55.12
32.58
8.24
-13.07
-26.61
-30.27
-25.62
-17.18
-10.07
-7.48
-9.20
-11.99
-11.53
-4.76
8.39
24.69
38.81
45.23
40.17
22.71
-5.05
-38.81
-73.44
-104.48
-128.98
-145.54
-153.90
-154.63
-149.15
-139.89
-129.78
-121.11
-113.86
-104.93
-88.73
-59.43
-14.02
45.60
112.50
176.87
229.28
263.60
278.13
274.78
257.07
228.09
189.47
141.59
84.64
20.15
-48.07
-114.13
-171.65
-216.05
-246.16
-264.56
-275.95
-284.58
-292.33
-298.35
-300.50
-297.33
-289.26
-278.13
-265.50
-250.98
-231.99
-205.07
-168.04
-121.73
-70.22
-19.38
25.26
60.20
84.69
100.12
109.03
114.03
117.13
119.49
121.39
122.44
121.90
119.01
113.26
104.50
93.13
80.05
66.73
55.07
47.13
44.60
48.29
57.56
70.23
82.96
92.20
95.19
90.80
79.65
63.60
44.85
25.20
5.69
-13.05
-30.39
-45.39
-56.92
-64.31
-67.86
-69.10
-70.48
-74.58
-83.31
-97.38
-116.05
-137.18
-157.62
-173.63
-181.57
-178.56
-163.21
-135.90
-98.79
-55.45
-10.14
32.89
70.06
99.10
119.30
131.54
137.91
140.99
143.00
145.32
148.37
151.87
155.17
157.42
157.50
154.05
145.64
131.21
110.83
85.92
59.06
33.22
10.75
-7.34
-21.59
-33.69
-45.63
-58.95
-74.23
-90.95
-107.75
-123.02
-135.40
-144.20
-149.55
-152.18
-153.04
-152.97
-152.57
-152.24
-152.50
-154.18
-158.30
-165.68
-176.33
-189.03
-201.38
-210.43
-213.56
-209.35
-197.95
-180.98
-160.79
-139.72
-119.39
-100.51
-82.86
-65.58
-47.48
-27.28
-4.09
22.33
51.22
80.85
108.91
133.03
151.52
163.73
170.17
172.14
170.97
167.53
161.97
154.02
143.53
130.75
116.37
101.15
85.62
70.03
54.74
40.61
29.17
22.27
21.27
26.39
36.48
49.47
63.21
76.16
87.55
97.05
104.36
108.90
109.90
106.68
98.99
87.24
72.56
56.55
41.02
27.57
17.09
9.36
3.04
-4.10
-14.58
-30.38
-52.41
-80.13
-111.72
-144.40
-174.99
-200.52
-218.83
-229.16
-232.38
-231.15
-229.36
-230.95
-238.44
-251.60
-267.04
-279.08
-281.62
-270.24
-243.74
-204.40
-156.88
-106.60
-58.14
-14.44
23.15
54.30
79.26
98.54
112.98
123.63
131.49
137.13
140.58
141.57
140.03
136.43
131.86
127.72
125.16
124.63
125.80
127.88
130.02
131.60
132.19
131.46
128.96
124.31
117.36
108.49
98.44
87.99
77.52
66.95
55.98
44.57
33.42
23.91
17.77
16.37
20.21
28.82
41.03
55.35
70.20
83.85
94.48
100.40
100.61
95.48
86.93
77.91
71.38
69.25
71.86
78.19
86.63
95.77
104.66
112.66
118.97
122.50
122.06
117.01
107.61
95.05
80.95
66.73
53.25
40.79
29.43
19.27
10.48
2.98
-3.80
-10.96
-19.77
-31.03
-44.40
-58.16
-69.52
-75.57
-74.30
-65.43
-50.51
-32.25
-13.41
4.11
19.76
34.21
48.82
64.93
83.22
103.50
124.63
144.71
161.39
172.33
175.59
170.15
156.17
134.99
108.91
80.63
52.69
26.94
4.25
-15.41
-32.68
-48.27
-62.70
-76.34
-89.66
-103.35
-118.12
-134.22
-151.18
-167.94
-183.50
-197.62
-211.22
-225.81
-242.47
-260.75
-278.39
-292.27
-299.82
-300.43
-295.64
-288.12
-280.04
-271.59
-260.77
-244.46
-219.98
-186.45
-145.16
-98.93
-51.08
-4.87
36.62
70.19
92.55
100.87
94.10
74.14
46.32
18.38
-1.70
-8.16
1.06
24.33
57.67
96.56
137.28
177.19
214.24
246.40
271.35
286.88
291.60
285.56
270.43
249.09
224.99
201.35
180.80
164.99
154.60
149.40
148.43
150.18
152.67
153.68
150.98
143.08
129.65
111.86
91.96
72.45
55.22
41.05
29.86
21.28
15.10
11.27
9.39
8.37
6.47
2.15
-4.87
-13.09
-19.54
-20.92
-15.11
-2.17
15.52
33.94
48.44
54.76
49.76
32.02
2.34
-36.10
-77.98
-116.80
-146.52
-163.42
-167.34
-161.91
-153.50
-148.91
-152.79
-165.56
-182.75
-196.39
-197.99
-181.86
-147.41
-99.16
-44.74
8.09
53.81
89.92
116.28
133.79
143.63
147.06
145.97
143.04
141.17
142.32
146.43
151.22
153.06
148.64
136.29
116.78
92.86
68.18
45.95
28.00
14.29
3.32
-7.16
-19.39
-34.98
-54.69
-78.53
-105.97
-135.96
-167.09
-197.48
-224.89
-247.03
-261.88
-268.09
-265.30
-254.36
-237.33
-217.08
-196.81
-179.40
-166.82
-159.78
-157.45
-157.40
-155.63
-147.24
-127.71
-94.78
-49.94
1.48
52.23
96.08
130.86
159.20
186.33
216.26
248.08
275.54
289.86
284.20
257.11
213.15
160.72
108.21
61.26
21.60
-11.59
-39.64
-63.06
-81.72
-95.33
-104.15
-109.22
-111.71
-113.11
-114.36
-115.61
-116.62
-118.20
-121.50
-127.59
-136.75
-147.49
-158.89
-170.18
-180.72
-190.35
-201.28
-215.58
-233.55
-252.77
-267.18
-273.38
-270.56
-259.89
-243.99
-228.45
-217.68
-213.26
-213.64
-212.93
-209.70
-204.71
-198.46
-191.01
-185.98
-187.79
-200.70
-226.86
-261.79
-303.08
-346.98
-387.20
-391.10
-335.64
-216.93
-55.70
91.73
209.99
299.95
367.31
421.22
463.42
488.97
493.12
475.36
441.72
406.37
378.25
361.13
354.66
355.20
356.00
351.95
341.64
327.66
317.23
312.50
312.14
313.58
313.99
309.74
298.28
278.63
251.94
222.78
193.89
166.95
143.04
122.00
101.96
80.60
56.37
29.47
2.68
-21.74
-42.30
-58.33
-70.10
-78.62
-85.09
-90.52
-95.56
-100.14
-104.21
-107.53
-109.73
-110.69
-110.88
-111.28
-112.92
-116.01
-119.41
-120.78
-117.44
-107.35
-89.91
-66.15
-38.41
-9.99
15.36
33.81
42.17
38.75
24.17
1.65
-23.69
-46.31
-61.84
-68.35
-66.59
-59.40
-50.49
-43.20
-39.75
-40.88
-46.09
-53.94
-62.52
-69.83
-74.32
-75.32
-73.35
-70.03
-67.47
-67.23
-69.52
-72.68
-73.77
-69.75
-59.05
-42.38
-22.59
-3.45
11.78
21.20
24.47
22.22
15.39
4.91
-8.12
-22.18
-35.26
-45.46
-51.99
-55.15
-55.81
-54.67
-51.70
-46.31
-38.08
-27.42
-15.85
-6.20
-0.90
-1.00
-5.69
-12.88
-20.37
-26.89
-32.63
-39.07
-49.15
-64.85
-86.01
-110.03
-133.01
-151.64
-164.58
-172.60
-177.63
-182.65
-189.32
-197.56
-206.05
-213.13
-217.49
-217.82
-212.39
-191.10
-149.20
-90.34
-27.19
24.56
54.32
60.37
48.31
27.03
4.57
-14.56
-27.67
-32.69
-27.72
-11.74
14.37
47.86
85.44
121.76
152.24
174.98
190.66
201.95
212.11
223.73
238.25
256.20
277.64
302.01
328.42
355.37
380.69
401.67
415.44
419.54
412.49
394.11
365.38
328.34
285.63
240.09
194.30
150.16
108.93
71.38
38.29
10.59
-10.78
-25.39
-33.88
-38.16
-40.90
-44.68
-51.16
-60.70
-72.52
-85.40
-98.37
-110.94
-123.08
-134.78
-145.72
-155.26
-162.72
-167.73
-170.30
-170.44
-167.64
-160.61
-147.56
-126.96
-98.54
-63.63
-25.07
13.41
48.12
75.93
94.87
104.23
104.63
97.86
86.50
73.38
60.98
50.96
43.83
38.97
34.81
29.31
20.69
8.31
-6.83
-22.37
-35.56
-44.69
-50.09
-54.04
-59.59
-68.70
-80.69
-91.99
-97.16
-91.03
-70.82
-37.51
4.01
46.33
81.86
105.46
116.08
116.78
113.03
110.01
110.33
113.11
114.96
112.02
102.00
85.07
63.40
39.66
15.53
-8.72
-33.66
-59.55
-85.41
-108.94
-127.18
-137.40
-137.80
-127.98
-109.04
-83.60
-55.42
-28.76
-7.39
6.34
11.91
10.25
2.90
-8.65
-23.21
-39.32
-54.65
-65.92
-69.70
-63.77
-48.24
-25.86
-1.26
20.23
33.99
37.04
28.74
11.13
-11.31
-32.54
-46.71
-50.13
-42.70
-27.84
-10.93
3.13
11.87
15.78
17.29
18.93
21.96
26.03
29.88
32.56
34.15
35.79
38.77
43.43
48.41
50.81
47.26
35.46
15.53
-9.72
-35.65
-57.67
-72.91
-81.02
-83.67
-83.09
-80.55
-75.91
-68.25
-57.33
-44.70
-33.56
-27.55
-28.84
-36.79
-47.77
-56.24
-56.72
-45.64
-22.48
10.17
47.43
83.46
112.82
131.52
137.73
132.06
117.27
97.47
76.89
58.90
45.31
36.43
31.48
29.20
28.17
26.86
23.53
16.47
4.47
-12.43
-32.62
-53.29
-71.36
-84.60
-92.31
-95.28
-95.12
-93.32
-90.48
-86.08
-78.70
-66.84
-49.72
-28.08
-4.25
18.40
36.41
47.39
50.78
48.18
42.88
38.99
40.25
48.99
65.40
87.42
111.36
132.89
148.28
155.20
152.92
141.99
123.80
100.48
75.04
51.44
34.05
26.33
29.18
40.03
53.27
62.18
61.53
49.45
27.94
1.61
-24.35
-46.04
-61.67
-71.38
-76.59
-79.44
-82.37
-87.74
-97.07
-110.03
-123.94
-134.35
-136.90
-129.66
-114.51
-96.96
-83.94
-80.81
-89.21
-106.60
-127.79
-147.37
-161.66
-169.28
-170.42
-165.70
-155.46
-140.01
-120.47
-99.43
-80.57
-67.39
-61.61
-62.13
-65.26
-66.17
-60.81
-47.41
-26.68
-1.06
26.63
54.14
80.26
104.64
127.36
148.63
168.41
186.10
200.20
208.33
207.73
196.37
174.12
143.31
108.39
74.58
46.19
25.48
12.50
5.98
4.44
7.15
14.21
26.21
43.31
64.58
87.48
107.94
121.12
122.49
109.25
81.14
40.69
-7.41
-57.35
-103.63
-142.22
-171.42
-192.10
-207.31
-221.21
-237.61
-258.47
-282.98
-307.57
-326.97
-335.90
-330.76
-310.66
-277.42
-234.82
-187.25
-138.45
-90.82
-45.48
-2.74
37.01
72.80
102.92
125.23
137.76
139.18
129.05
107.90
77.11
38.95
-3.50
-46.29
-85.02
-115.42
-134.30
-140.12
-133.26
-115.58
-89.81
-58.88
-25.67
6.98
36.41
60.41
77.86
89.31
96.75
102.87
109.82
118.29
127.44
135.64
141.49
144.71
146.07
146.75
147.67
149.00
150.25
150.78
150.16
148.40
145.59
141.68
136.15
128.14
116.83
101.98
84.14
64.64
45.32
27.94
13.80
3.58
-2.71
-5.54
-5.79
-4.53
-2.89
-1.71
-1.27
-1.20
-0.91
-0.19
0.19
-1.49
-7.10
-17.55
-31.89
-47.43
-60.80
-69.52
-73.15
-73.26
-72.42
-72.63
-74.18
-75.60
-74.54
-69.10
-58.70
-44.28
-27.92
-12.05
1.07
9.67
12.42
8.54
-1.92
-17.55
-35.04
-49.39
-55.01
-47.47
-25.30
9.17
50.38
91.39
126.25
151.62
167.18
174.62
176.16
173.34
166.65
156.10
141.96
125.12
107.03
89.01
71.67
54.71
37.18
18.27
-2.02
-22.52
-41.20
-55.90
-65.29
-69.45
-69.86
-68.78
-68.32
-69.80
-73.49
-79.04
-85.98
-94.22
-103.93
-114.91
-126.00
-134.70
-137.58
-131.23
-113.47
-84.12
-45.19
-0.29
46.16
89.70
126.45
153.49
169.25
173.70
168.53
156.83
142.37
128.66
118.05
111.31
107.72
105.70
103.52
99.90
94.28
86.74
77.79
68.11
58.42
49.40
41.71
35.98
32.72
32.15
34.10
37.97
42.97
48.42
53.91
59.18
63.76
66.86
67.45
64.85
59.15
51.33
42.80
34.68
27.36
20.61
14.25
8.64
4.71
3.34
4.53
6.94
8.42
7.00
1.89
-6.15
-15.43
-24.43
-32.64
-40.69
-49.69
-60.18
-71.37
-81.13
-86.87
-86.79
-80.78
-70.61
-59.05
-48.71
-40.96
-35.54
-30.97
-25.38
-17.36
-6.47
6.62
20.14
31.62
38.51
39.00
32.75
21.08
6.27
-9.48
-25.07
-40.69
-57.36
-75.94
-96.33
-117.20
-136.47
-152.01
-162.29
-166.58
-164.95
-157.87
-146.13
-130.75
-113.00
-94.41
-76.78
-61.98
-51.53
-46.28
-45.97
-49.20
-54.00
-58.58
-62.06
-64.69
-67.49
-71.67
-78.12
-87.17
-98.72
-112.37
-127.43
-143.08
-158.77
-174.69
-192.10
-212.93
-238.72
-269.13
-300.97
-328.51
-345.04
-345.20
-326.78
-291.30
-243.02
-187.06
-127.75
-67.65
-7.57
52.85
114.24
176.49
237.95
295.13
343.27
377.62
395.11
395.45
381.29
357.25
328.23
298.07
268.95
241.80
217.12
195.50
177.54
163.33
151.90
141.38
129.58
115.10
97.86
79.05
60.62
44.12
30.02
17.49
4.96
-9.01
-24.97
-42.34
-59.85
-76.26
-91.04
-104.51
-117.44
-130.44
-143.43
-155.51
-165.16
-170.70
-170.61
-163.96
-150.70
-131.93
-109.98
-88.13
-69.79
-57.46
-51.96
-52.21
-55.87
-60.19
-62.83
-62.13
-56.90
-46.08
-28.80
-4.93
24.20
55.42
84.04
104.92
113.77
108.31
88.80
57.85
19.78
-20.62
-59.39
-94.38
-125.59
-154.57
-183.25
-212.69
-242.43
-270.69
-295.22
-314.09
-326.07
-330.43
-326.61
-314.08
-292.60
-262.71
-225.84
-184.06
-139.52
-94.04
-49.01
-5.66
34.64
70.40
100.18
123.10
139.02
148.58
152.98
153.67
152.07
149.40
146.52
143.89
141.53
139.17
136.47
133.18
129.29
125.05
120.83
116.91
113.39
110.21
107.25
104.46
102.01
100.31
99.90
101.25
104.58
109.66
115.81
122.03
127.14
129.97
129.50
125.11
116.81
105.37
92.34
79.69
69.10
61.36
55.92
51.24
45.41
37.03
25.84
12.59
-1.45
-15.24
-28.35
-40.87
-52.99
-64.55
-74.97
-83.42
-89.21
-91.97
-91.54
-87.66
-79.72
-66.90
-48.71
-25.67
0.36
26.49
49.63
67.48
79.20
85.39
87.48
86.89
84.47
80.40
74.43
66.26
55.85
43.30
28.78
12.52
-4.95
-22.46
-38.20
-49.92
-55.68
-54.50
-46.81
-34.25
-19.04
-3.27
11.73
25.36
37.55
48.38
57.80
65.64
71.60
75.31
76.39
74.64
70.29
64.26
58.13
53.62
51.97
53.31
56.49
59.54
60.48
58.11
52.36
44.07
34.49
24.78
15.68
7.52
0.37
-5.84
-11.25
-16.14
-20.97
-26.28
-32.44
-39.34
-46.19
-51.58
-53.90
-51.95
-45.43
-35.03
-22.19
-8.55
4.59
16.53
27.06
36.21
43.92
49.98
54.16
56.37
56.81
55.87
54.05
51.71
49.06
46.18
43.04
39.63
35.93
31.86
27.34
22.36
16.99
11.46
6.05
1.01
-3.56
-7.74
-11.70
-15.72
-20.09
-25.09
-30.87
-37.22
-43.47
-48.40
-50.57
-48.76
-42.47
-32.19
-19.24
-5.33
7.97
19.63
29.18
36.58
41.90
45.19
46.51
46.07
44.27
41.70
39.06
36.86
35.39
34.60
34.16
33.62
32.59
30.81
28.30
25.27
21.95
18.55
15.12
11.60
7.88
3.89
-0.36
-4.92
-9.91
-15.48
-21.65
-28.05
-33.81
-37.73
-38.62
-35.83
-29.52
-20.59
-10.38
-0.17
9.17
17.22
23.85
28.95
32.39
34.00
33.89
32.45
30.38
28.45
27.23
26.91
27.32
28.03
28.59
28.66
28.08
26.85
25.06
22.86
20.38
17.73
14.97
12.13
9.19
6.10
2.72
-1.09
-5.45
-10.23
-14.93
-18.73
-20.65
-19.88
-16.11
-9.69
-1.56
7.11
15.18
21.86
26.65
29.37
29.96
28.55
25.41
21.07
16.13
11.19
6.59
2.39
-1.64
-5.80
-10.29
-15.13
-20.17
-25.14
-29.86
-34.26
-38.40
-42.37
-46.17
-49.64
-52.42
-54.11
-54.37
-53.15
-50.67
-47.39
-43.74
-39.99
-36.10
-31.77
-26.68
-20.66
-14.00
-7.50
-2.49
-0.55
-3.25
-11.76
-26.52
-47.14
-72.42
-100.53
-129.44
-157.33
-182.96
-205.74
-225.65
-242.80
-256.89
-266.79
-270.47
-265.36
-249.16
-220.69
-180.51
-130.97
-75.67
-18.54
36.95
88.26
133.84
172.81
204.65
229.04
245.92
255.62
258.98
257.21
251.68
243.66
234.32
224.74
215.95
208.86
204.00
201.22
199.54
197.43
193.31
186.17
175.98
163.66
150.72
138.50
127.73
118.14
108.60
97.55
83.57
65.89
44.74
21.26
-2.72
-25.21
-44.48
-59.41
-69.48
-74.77
-75.67
-72.86
-67.17
-59.55
-51.02
-42.56
-35.02
-28.96
-24.55
-21.53
-19.23
-16.66
-12.81
-6.79
1.95
13.57
27.91
44.51
62.75
81.82
100.75
118.47
133.96
146.49
155.83
162.34
166.82
170.23
173.38
176.66
180.08
183.49
186.74
189.68
191.89
192.28
189.13
180.56
165.53
144.68
120.42
96.01
74.14
55.73
39.62
23.46
5.03
-16.69
-41.11
-66.50
-90.79
-112.10
-128.91
-139.93
-144.10
-140.66
-129.54
-111.60
-88.58
-62.92
-37.05
-12.91
8.58
27.54
44.61
60.05
73.06
81.57
82.99
75.52
59.09
35.45
7.38
-22.86
-54.56
-88.57
-126.22
-167.81
-211.80
-255.16
-294.75
-328.67
-356.84
-380.54
-401.28
-419.89
-436.00
-447.95
-453.07
-447.99
-429.24
-394.17
-342.11
-275.35
-199.45
-122.40
-52.80
2.34
39.43
58.86
64.28
61.15
55.08
50.45
49.75
53.61
61.25
71.35
82.40
92.98
101.61
107.01
108.48
106.49
102.79
99.67
98.86
100.66
103.74
106.16
106.67
105.62
104.75
106.17
111.14
119.47
129.57
138.99
145.02
144.99
136.80
119.65
94.94
66.47
39.56
18.99
6.86
1.77
-0.33
-3.72
-10.67
-20.49
-30.46
-37.72
-40.99
-40.80
-38.48
-34.94
-30.06
-23.11
-13.86
-3.42
5.68
10.38
8.26
-1.66
-18.72
-41.03
-66.14
-91.49
-114.72
-133.70
-146.68
-152.63
-151.56
-144.62
-133.78
-121.25
-108.82
-97.48
-87.50
-78.74
-71.10
-64.74
-59.88
-56.45
-53.92
-51.30
-47.56
-42.18
-35.34
-27.91
-21.02
-15.55
-11.82
-9.60
-8.33
-7.41
-6.51
-5.61
-4.87
-4.49
-4.55
-5.02
-5.74
-6.50
-7.05
-7.08
-6.23
-4.19
-0.86
3.60
8.75
14.04
18.97
23.23
26.76
29.58
31.71
33.10
33.71
33.58
32.94
32.15
31.55
31.35
31.49
31.71
31.63
30.95
29.51
27.34
24.61
21.56
18.41
15.37
12.56
10.04
7.79
5.74
3.73
1.64
-0.58
-2.87
-5.08
-7.03
-8.64
-10.00
-11.31
-12.80
-14.60
-16.65
-18.77
-20.74
-22.43
-23.89
-25.26
-26.76
-28.54
-30.63
-32.95
-35.37
-37.73
-39.88
-41.79
-43.61
-45.71
-48.66
-53.06
-59.16
-66.45
-73.37
-77.38
-75.59
-65.64
-46.54
-19.13
14.18
50.03
84.90
115.72
140.29
157.44
167.11
170.31
168.94
165.30
161.57
159.29
159.06
160.60
162.99
165.12
165.90
164.47
160.27
153.13
143.25
131.18
117.77
104.00
90.73
78.44
66.83
54.78
40.63
22.84
0.78
-24.79
-51.84
-77.77
-100.37
-118.46
-132.08
-142.14
-149.78
-155.96
-161.20
-165.62
-169.12
-171.38
-171.97
-170.38
-166.19
-159.22
-149.64
-138.00
-125.04
-111.58
-98.36
-85.98
-74.87
-65.20
-56.86
-49.36
-42.09
-34.47
-26.30
-17.88
-9.87
-2.93
2.59
6.81
10.17
13.07
15.63
17.61
18.69
18.67
17.55
15.50
12.58
8.78
4.09
-1.27
-6.76
-11.71
-15.68
-18.72
-21.35
-24.18
-27.53
-31.10
-34.17
-35.91
-35.78
-33.68
-29.82
-24.44
-17.69
-9.71
-0.84
8.27
16.71
23.76
29.11
33.02
36.15
39.15
42.47
46.22
50.42
55.04
60.12
65.56
70.96
75.59
78.71
79.94
79.60
78.56
77.69
77.18
76.13
72.67
64.58
49.90
27.43
-3.00
-40.38
-82.27
-124.77
-162.95
-192.15
-209.43
-214.88
-211.62
-204.51
-198.17
-195.19
-195.47
-196.84
-196.39
-191.65
-181.15
-164.33
-141.32
-112.92
-80.67
-46.90
-14.40
14.22
37.09
53.43
63.34
67.55
66.96
62.55
55.32
46.39
37.01
28.39
21.56
17.09
15.03
15.01
16.46
18.84
21.74
24.87
27.96
30.69
32.66
33.58
33.44
32.58
31.62
31.23
31.85
33.51
35.92
38.61
41.21
43.68
46.35
49.81
54.61
60.97
68.57
76.53
83.72
89.10
92.09
92.82
92.00
90.64
89.74
89.89
91.14
93.04
94.77
95.38
94.07
90.50
85.11
79.19
74.93
74.79
80.42
91.51
104.81
114.37
113.40
97.34
66.77
28.57
-5.84
-24.63
-20.38
6.58
48.23
91.94
125.18
139.56
132.47
106.40
66.92
20.79
-25.22
-64.76
-92.53
-105.28
-102.82
-88.18
-66.55
-43.01
-20.14
2.98
29.98
64.37
106.34
150.99
189.03
210.08
207.02
179.21
133.06
79.69
30.57
-6.40
-29.01
-40.01
-44.63
-47.57
-51.39
-56.48
-62.39
-69.12
-77.64
-89.19
-104.37
-122.43
-141.48
-159.54
-175.54
-189.90
-204.24
-220.63
-240.50
-264.19
-291.07
-320.02
-349.88
-379.52
-407.42
-431.21
-447.62
-453.09
-444.78
-421.65
-384.80
-337.20
-282.51
-223.84
-163.04
-100.49
-35.55
32.87
105.67
182.86
262.62
340.67
410.44
464.43
496.50
504.11
489.38
458.32
418.72
377.58
339.52
306.40
278.14
253.87
232.71
213.96
197.02
181.20
165.87
150.71
135.86
122.06
110.64
102.98
99.87
100.73
103.43
104.87
102.20
94.06
81.04
65.13
48.46
32.38
17.20
2.62
-11.43
-24.59
-36.35
-46.70
-56.59
-67.64
-81.33
-98.28
-118.07
-139.74
-162.67
-186.98
-213.27
-242.04
-273.07
-305.28
-337.00
-366.58
-392.95
-415.83
-435.66
-453.14
-468.88
-483.20
-496.15
-507.59
-517.12
-523.87
-526.41
-522.99
-511.97
-492.56
-465.26
-431.83
-394.81
-356.70
-319.23
-283.00
-247.71
-212.69
-177.53
-142.29
-107.49
-73.78
-41.62
-11.13
17.94
45.99
73.36
100.11
125.94
150.39
172.96
193.43
211.96
229.06
245.51
262.29
280.51
301.16
324.67
350.17
375.19
395.79
407.68
407.81
395.65
373.54
345.82
317.04
290.33
266.61
244.99
223.78
201.61
177.98
153.32
128.62
105.31
85.10
69.80
61.01
59.60
65.56
77.96
95.31
115.93
138.17
160.28
180.50
197.15
209.00
215.68
217.79
216.80
214.55
212.83
212.98
215.63
220.59
226.86
232.90
237.11
238.34
236.13
230.71
222.67
212.64
201.10
188.23
173.92
157.69
138.61
115.57
87.76
55.39
20.10
-15.34
-47.78
-74.78
-95.15
-108.66
-115.30
-114.66
-105.97
-88.83
-64.12
-34.31
-3.06
26.09
50.85
70.72
86.61
99.67
110.13
116.86
117.75
110.92
95.87
74.17
49.29
25.53
6.69
-5.18
-10.24
-10.60
-9.39
-9.64
-13.52
-21.96
-34.81
-51.22
-69.94
-89.50
-108.35
-124.82
-137.34
-144.62
-146.02
-141.74
-133.07
-122.22
-111.94
-104.71
-101.82
-102.62
-104.54
-103.72
-96.37
-80.13
-54.96
-23.32
10.43
41.14
64.12
76.22
76.45
66.20
48.79
28.54
9.41
-6.09
-17.54
-26.29
-34.51
-43.98
-55.34
-68.03
-80.73
-92.16
-101.50
-108.59
-113.76
-117.63
-120.92
-124.34
-128.45
-133.47
-139.13
-144.69
-149.19
-151.81
-152.23
-150.79
-148.41
-146.35
-145.86
-147.78
-152.02
-157.21
-160.64
-158.75
-148.28
-127.43
-96.68
-58.83
-18.02
21.54
56.61
85.35
107.04
121.58
129.15
130.21
125.86
117.87
108.33
99.04
90.82
83.26
75.11
64.97
52.13
36.86
20.34
4.04
-10.77
-23.48
-34.09
-42.97
-50.62
-57.39
-63.37
-68.49
-72.64
-75.79
-78.12
-80.02
-82.00
-84.60
-88.27
-93.23
-99.21
-105.24
-109.59
-109.96
-104.11
-90.66
-69.65
-42.78
-12.96
16.49
42.67
63.60
78.12
85.76
86.49
80.85
70.19
56.79
43.42
32.63
25.94
23.60
24.89
28.84
34.71
41.97
49.73
56.41
59.93
58.73
52.77
43.89
35.07
28.96
26.67
27.38
28.90
28.73
24.79
15.61
0.37
-21.05
-47.55
-76.67
-105.09
-130.02
-150.46
-167.41
-182.78
-197.71
-211.75
-223.43
-231.79
-237.46
-242.19
-247.10
-250.80
-249.08
-236.74
-210.47
-170.99
-123.03
-73.16
-26.74
14.07
50.57
86.05
124.20
167.98
218.93
276.67
338.22
397.91
448.14
481.49
493.31
483.69
457.58
422.86
387.37
356.28
331.22
311.08
293.84
277.85
262.06
245.51
226.85
204.76
179.01
151.36
125.29
104.57
91.26
84.17
79.00
70.10
52.96
26.16
-8.38
-46.58
-84.28
-118.85
-149.59
-176.91
-201.11
-221.58
-236.86
-245.53
-247.23
-243.19
-235.83
-227.82
-220.99
-215.92
-212.33
-209.86
-208.70
-209.54
-212.67
-217.11
-220.31
-218.89
-210.13
-193.46
-170.93
-146.48
-124.18
-106.70
-94.53
-86.61
-81.63
-79.13
-79.92
-85.35
-96.16
-111.74
-130.16
-149.04
-166.46
-181.44
-193.63
-202.59
-207.21
-206.04
-198.01
-183.60
-165.06
-145.80
-128.81
-115.12
-103.16
-89.57
-70.96
-45.59
-14.20
20.58
55.57
88.48
118.50
146.06
171.92
196.33
218.78
238.38
254.46
267.19
277.52
286.77
296.03
305.59
314.93
322.93
328.46
330.92
330.48
327.94
324.29
320.24
315.84
310.52
303.33
293.32
279.86
262.72
242.03
218.12
191.44
162.44
131.48
98.80
64.44
28.45
-8.76
-46.22
-82.27
-114.77
-141.57
-160.95
-172.10
-175.36
-172.12
-164.48
-154.71
-144.72
-135.70
-127.68
-119.62
-109.84
-96.60
-78.62
-54.98
-25.42
9.70
48.91
90.00
130.20
166.67
197.18
220.90
238.88
253.33
266.54
279.20
290.31
297.21
296.19
283.37
255.91
213.42
158.12
95.21
31.53
-24.74
-66.08
-88.04
-90.76
-81.76
-70.68
-67.50
-74.83
-92.95
-119.77
-152.86
-189.06
-225.66
-260.95
-293.65
-322.95
-347.88
-367.78
-381.30
-386.74
-383.05
-369.92
-347.84
-317.99
-282.27
-243.07
-203.74
-167.71
-134.13
-104.11
-78.58
-56.51
-34.34
-7.51
27.43
70.73
119.56
168.98
214.43
251.81
276.93
286.06
276.94
250.07
208.90
159.48
108.49
60.27
15.66
-26.51
-69.76
-118.54
-176.07
-242.44
-313.28
-380.22
-433.19
-463.42
-466.39
-443.50
-401.33
-348.54
-292.40
-236.46
-180.41
-121.85
-58.52
10.03
81.71
152.40
217.00
270.47
309.11
331.51
339.09
335.85
326.96
317.07
308.95
303.00
297.95
291.95
283.64
272.58
258.92
243.06
225.10
204.82
181.80
155.74
126.89
96.48
66.63
39.82
17.96
1.60
-10.25
-19.44
-27.64
-35.56
-42.74
-48.11
-50.91
-51.44
-51.15
-52.11
-55.99
-63.25
-72.91
-82.96
-91.33
-96.84
-99.62
-100.84
-102.02
-104.18
-107.41
-111.02
-114.22
-116.68
-118.87
-121.71
-126.00
-131.84
-138.49
-144.58
-148.65
-149.61
-147.06
-141.36
-133.37
-124.12
-114.48
-104.93
-95.61
-86.50
-77.65
-69.17
-61.22
-53.82
-46.87
-40.15
-33.41
-26.50
-19.33
-11.84
-3.98
4.23
12.75
21.51
30.43
39.49
48.76
58.34
68.32
78.70
89.36
100.07
110.49
120.16
128.53
134.95
138.82
139.74
137.59
132.61
125.23
115.92
105.05
92.98
80.14
67.15
54.70
43.36
33.25
23.94
14.60
4.30
-7.67
-21.63
-37.52
-55.06
-73.79
-93.21
-112.74
-131.87
-150.32
-167.99
-184.96
-201.34
-217.05
-231.83
-245.24
-256.69
-265.51
-271.02
-272.67
-269.94
-262.25
-248.66
-227.61
-197.08
-155.19
-101.03
-35.18
40.18
121.67
205.26
286.52
360.83
423.56
470.59
499.19
508.54
499.70
474.96
437.08
388.86
333.35
274.17
215.42
160.78
112.44
70.37
32.81
-2.49
-36.71
-69.29
-98.34
-121.86
-138.84
-149.80
-156.28
-160.05
-162.46
-164.36
-166.30
-168.88
-172.73
-178.11
-184.71
-191.38
-196.58
-198.80
-197.04
-190.69
-179.12
-161.24
-135.54
-100.85
-57.21
-6.61
47.11
99.08
144.64
180.38
204.85
218.34
222.21
218.04
206.94
189.33
165.38
135.70
101.97
67.12
34.46
6.64
-15.53
-33.26
-48.95
-64.75
-81.42
-98.12
-113.13
-125.17
-134.20
-141.34
-148.06
-155.07
-161.64
-165.65
-164.18
-154.30
-133.91
-102.52
-61.76
-15.50
30.76
71.34
102.05
121.44
131.03
134.29
135.04
136.15
139.08
144.43
152.82
165.31
182.93
205.61
231.27
255.73
273.87
281.46
276.83
261.57
239.67
215.74
193.07
172.56
153.17
133.33
112.27
90.66
69.79
50.40
31.86
12.66
-8.14
-29.40
-47.50
-57.62
-56.06
-42.36
-19.88
5.33
26.84
40.04
43.06
36.36
21.61
0.66
-24.83
-53.05
-81.66
-107.82
-128.77
-142.72
-149.45
-150.44
-148.15
-144.96
-142.20
-139.67
-135.93
-129.18
-118.42
-104.20
-88.66
-74.71
-64.90
-60.43
-60.98
-65.10
-71.06
-77.51
-83.71
-89.22
-93.62
-96.28
-96.64
-94.50
-90.30
-85.06
-80.12
-76.71
-75.61
-77.07
-80.72
-85.77
-91.24
-96.32
-100.53
-103.76
-106.14
-107.80
-108.71
-108.71
-107.63
-105.30
-101.66
-96.79
-90.82
-84.04
-76.82
-69.41
-61.61
-52.52
-40.78
-25.11
-5.20
17.73
41.04
61.55
76.75
85.75
89.50
90.09
89.63
89.15
88.17
85.02
77.80
65.55
49.05
30.92
14.95
4.90
3.07
9.37
21.24
34.47
44.62
48.42
44.78
35.07
22.68
12.02
7.19
10.57
22.08
39.28
58.51
76.57
92.21
106.50
121.98
140.73
162.71
185.16
203.51
213.37
212.36
200.90
181.52
157.28
130.44
101.91
72.02
41.63
12.75
-11.79
-29.47
-39.30
-42.33
-41.23
-39.17
-38.76
-41.44
-47.42
-56.08
-66.32
-76.95
-86.98
-95.74
-103.13
-109.57
-115.83
-122.67
-130.57
-139.73
-150.21
-161.90
-174.50
-187.26
-198.85
-207.62
-212.10
-211.61
-206.60
-198.58
-189.54
-181.22
-174.49
-169.23
-164.66
-159.96
-154.71
-149.10
-143.58
-138.39
-133.26
-127.30
-119.27
-107.88
-92.19
-71.78
-46.92
-18.59
11.62
41.70
69.54
93.32
111.78
124.41
131.30
132.95
130.09
123.56
114.26
103.04
90.57
77.12
62.61
46.86
29.96
12.74
-3.20
-15.77
-22.99
-23.63
-17.66
-6.26
8.62
24.77
40.25
53.68
64.28
71.79
76.31
78.23
78.09
76.55
74.27
71.81
69.56
67.73
66.39
65.52
65.09
65.02
65.13
65.12
64.57
63.05
60.20
55.91
50.34
43.89
37.10
30.47
24.35
18.89
13.98
9.26
4.15
-1.93
-9.37
-17.96
-26.84
-34.54
-39.41
-40.11
-36.09
-27.69
-15.99
-2.43
11.59
24.85
36.41
45.53
51.73
54.85
55.21
53.60
51.07
48.56
46.61
45.23
44.05
42.65
40.79
38.62
36.48
34.69
33.33
32.14
30.66
28.47
25.34
21.33
16.70
11.77
6.75
1.73
-3.37
-8.68
-14.41
-20.73
-27.81
-35.68
-44.09
-52.30
-59.13
-63.09
-62.85
-57.73
-47.95
-34.62
-19.39
-3.98
10.20
22.22
31.60
38.15
41.90
43.13
42.34
40.28
37.78
35.54
33.97
33.11
32.75
32.47
31.98
31.09
29.84
28.37
26.84
25.22
23.31
20.75
17.16
12.34
6.43
-0.13
-6.72
-12.80
-18.22
-23.35
-28.96
-36.02
-45.22
-56.57
-69.18
-81.35
-91.02
-96.39
-96.66
-92.28
-84.84
-76.32
-68.33
-61.41
-55.00
-48.00
-39.57
-29.67
-19.15
-9.31
-1.33
4.12
7.16
8.72
10.68
15.68
26.66
45.77
73.19
106.30
139.82
167.29
183.17
184.88
173.70
154.22
132.59
114.40
103.07
99.25
101.28
106.34
111.62
115.06
115.58
112.80
106.61
97.16
84.99
71.37
58.25
47.73
41.21
38.63
38.31
37.67
34.37
27.40
17.46
6.50
-3.40
-10.99
-16.33
-20.43
-24.37
-28.50
-32.13
-33.93
-32.60
-27.74
-20.11
-11.37
-3.51
1.97
4.58
4.86
4.05
3.45
3.97
5.88
8.91
12.50
15.95
18.55
19.68
19.10
17.33
15.62
15.57
18.30
23.70
30.16
35.13
36.35
32.98
26.10
18.18
11.92
8.88
8.78
9.65
8.77
4.00
-5.18
-17.38
-29.94
-40.02
-45.89
-47.47
-46.00
-43.10
-39.82
-36.17
-31.61
-25.86
-19.47
-13.89
-10.79
-11.19
-14.99
-21.13
-28.12
-34.78
-40.60
-45.70
-50.50
-55.45
-60.78
-66.59
-72.86
-79.38
-85.65
-90.83
-93.75
-93.31
-88.86
-80.51
-69.14
-56.13
-42.92
-30.69
-20.19
-11.85
-5.84
-2.14
-0.45
-0.17
-0.42
-0.36
0.51
2.16
4.15
5.85
6.81
6.91
6.37
5.55
4.77
4.15
3.57
2.72
1.10
-1.83
-6.61
-13.68
-23.16
-34.75
-47.55
-60.12
-70.69
-77.59
-79.72
-76.85
-69.78
-60.01
-49.20
-38.75
-29.48
-21.66
-15.29
-10.37
-7.01
-5.38
-5.49
-7.10
-9.66
-12.44
-14.75
-16.10
-16.27
-15.36
-13.70
-11.75
-10.01
-8.95
-8.87
-9.92
-12.03
-15.01
-18.60
-22.58
-26.91
-31.71
-37.36
-44.26
-52.62
-62.15
-71.84
-79.96
-84.45
-83.51
-76.18
-62.74
-44.61
-23.90
-2.67
17.68
36.57
54.12
70.64
86.25
100.64
113.17
123.13
130.09
134.02
135.30
134.57
132.56
129.87
126.99
124.18
121.67
119.67
118.52
118.64
120.49
124.47
130.91
139.96
151.38
164.17
176.30
184.90
186.94
180.25
164.35
140.64
111.99
81.82
53.23
28.31
7.99
-7.91
-20.37
-30.92
-41.12
-51.93
-63.26
-73.90
-81.97
-85.73
-84.28
-77.88
-67.88
-56.43
-46.16
-39.71
-39.07
-44.80
-55.48
-67.70
-76.79
-78.20
-68.84
-48.10
-17.80
18.69
57.68
96.07
131.59
162.50
187.22
204.19
212.25
211.02
201.05
183.58
160.07
131.80
99.99
66.21
32.64
1.84
-24.06
-44.35
-60.18
-73.99
-88.27
-104.26
-121.44
-137.88
-151.21
-159.64
-162.48
-160.03
-153.21
-143.11
-130.83
-117.45
-103.99
-91.45
-80.54
-71.62
-64.59
-59.06
-54.51
-50.49
-46.71
-43.14
-39.88
-37.07
-34.76
-32.82
-31.03
-29.12
-26.89
-24.32
-21.56
-18.99
-17.13
-16.62
-17.98
-21.45
-26.73
-33.05
-39.30
-44.40
-47.64
-48.82
-48.10
-45.64
-41.26
-34.50
-24.92
-12.65
1.24
14.90
26.22
33.66
36.85
36.71
35.01
33.67
34.06
36.68
41.31
47.33
54.10
61.14
68.05
74.36
79.41
82.46
82.86
80.36
75.29
68.58
61.55
55.55
51.54
49.75
49.49
49.31
47.48
42.59
34.19
22.97
10.54
-1.15
-10.53
-16.86
-20.23
-21.19
-20.36
-18.16
-14.91
-11.07
-7.33
-4.37
-2.46
-1.09
0.94
5.08
12.37
22.89
35.83
49.74
63.13
74.69
83.40
88.34
88.60
83.60
73.50
59.53
43.91
29.14
17.17
8.59
2.60
-2.52
-8.52
-16.46
-26.43
-37.95
-50.58
-64.34
-79.63
-96.69
-114.87
-132.41
-146.74
-155.45
-157.09
-151.69
-140.56
-125.73
-109.30
-92.92
-77.59
-63.72
-51.31
-40.03
-29.57
-19.84
-11.07
-3.78
1.65
5.27
7.64
9.56
11.63
13.98
16.41
18.66
20.64
22.14
22.50
20.42
14.25
2.78
-13.90
-34.21
-55.61
-75.59
-92.60
-106.34
-117.49
-127.10
-136.17
-145.43
-155.16
-165.00
-173.83
-179.92
-181.86
-179.71
-175.67
-173.92
-178.95
-193.43
-216.41
-243.07
-266.09
-278.27
-275.03
-255.84
-223.96
-184.89
-144.47
-107.17
-75.58
-50.64
-32.31
-20.13
-13.34
-10.99
-11.99
-15.52
-21.37
-29.88
-41.46
-55.65
-70.43
-82.27
-86.89
-80.56
-61.27
-29.61
10.96
54.22
91.89
115.30
117.82
97.28
57.25
6.30
-44.75
-86.34
-112.84
-123.40
-121.02
-110.43
-96.23
-81.80
-68.91
-57.74
-47.06
-34.74
-18.74
1.51
24.02
44.45
57.61
59.96
51.51
36.36
21.29
13.26
16.90
33.18
59.50
91.24
123.52
152.60
176.62
195.33
209.45
219.92
227.26
231.40
231.95
228.60
221.54
211.51
199.56
186.64
173.25
159.51
145.45
131.29
117.64
105.25
94.50
84.94
75.18
63.30
47.70
28.13
6.29
-14.41
-29.91
-36.97
-34.48
-23.92
-8.65
7.48
21.54
32.32
40.14
46.00
50.69
54.30
56.41
56.56
54.68
51.23
46.84
41.98
36.72
30.83
24.14
16.90
9.89
4.12
0.47
-0.87
-0.54
0.24
0.11
-1.85
-5.81
-11.26
-17.37
-23.39
-28.96
-34.05
-38.78
-43.15
-46.85
-49.44
-50.48
-49.88
-47.95
-45.34
-42.84
-41.21
-41.08
-42.89
-46.77
-52.32
-58.49
-63.70
-66.23
-64.90
-59.54
-51.11
-41.24
-31.48
-22.72
-14.93
-7.47
0.48
9.35
19.02
28.97
38.52
47.09
54.33
60.09
64.37
67.28
68.98
69.70
69.73
69.41
69.03
68.83
68.79
68.70
68.09
66.44
63.36
58.71
52.73
45.89
38.77
31.82
25.26
19.02
12.86
6.52
-0.14
-7.09
-14.06
-20.71
-26.71
-31.89
-36.31
-40.33
-44.45
-49.29
-55.22
-62.22
-69.67
-76.32
-80.62
-81.15
-77.06
-68.35
-55.89
-41.04
-25.22
-9.58
5.16
18.66
30.71
41.06
49.44
55.60
59.48
61.25
61.33
60.28
58.67
56.95
55.43
54.24
53.38
52.77
52.27
51.70
50.89
49.69
48.02
45.88
43.35
40.53
37.50
34.25
30.72
26.83
22.49
17.70
12.56
7.18
1.75
-3.61
-8.85
-14.03
-19.37
-25.23
-31.93
-39.65
-48.14
-56.60
-63.76
-68.12
-68.46
-64.18
-55.61
-43.86
-30.42
-16.72
-3.74
8.07
18.58
27.76
35.44
41.35
45.31
47.38
47.90
47.45
46.54
45.53
44.51
43.48
42.44
41.48
40.76
40.31
39.97
39.36
38.06
35.75
32.41
28.29
23.80
19.34
15.07
10.98
6.86
2.49
-2.24
-7.31
-12.54
-17.74
-22.79
-27.61
-32.31
-37.11
-42.40
-48.59
-55.88
-64.04
-72.18
-78.85
-82.41
-81.53
-75.71
-65.41
-51.84
-36.52
-20.81
-5.65
8.40
21.01
31.94
40.97
47.96
52.93
56.08
57.74
58.25
57.92
57.01
55.72
54.23
52.68
51.15
49.65
48.13
46.46
44.50
42.14
39.32
36.10
32.62
29.01
25.40
21.80
18.16
14.36
10.27
5.78
0.87
-4.39
-9.80
-15.13
-20.14
-24.77
-29.17
-33.73
-38.95
-45.19
-52.35
-59.73
-66.01
-69.66
-69.41
-64.72
-55.97
-44.32
-31.26
-18.12
-5.80
5.30
15.00
23.14
29.45
33.62
35.52
35.41
33.94
31.96
30.31
29.48
29.45
29.68
29.37
27.69
24.07
18.25
10.43
1.21
-8.44
-17.35
-24.33
-28.44
-29.26
-27.01
-22.47
-16.78
-11.19
-6.79
-4.44
-4.54
-6.95
-10.98
-15.51
-19.43
-22.17
-23.96
-25.76
-28.74
-33.68
-40.56
-48.62
-56.79
-64.07
-69.80
-73.52
-74.71
-72.82
-67.49
-58.98
-48.37
-37.37
-27.70
-20.48
-15.92
-13.45
-12.24
-11.69
-11.59
-11.84
-12.15
-11.70
-9.33
-4.04
4.56
15.88
28.57
40.94
51.59
59.79
65.61
69.66
72.71
75.42
78.12
80.87
83.59
86.17
88.55
90.68
92.53
93.96
94.78
94.71
93.46
90.76
86.37
80.17
72.28
63.24
54.02
45.82
39.73
36.28
35.20
35.50
35.83
35.01
32.30
27.48
20.74
12.47
3.26
-6.07
-14.50
-21.04
-25.03
-26.42
-25.80
-24.00
-21.71
-19.06
-15.58
-10.55
-3.33
6.25
17.84
30.79
44.35
57.88
70.65
81.73
89.99
94.43
94.66
91.27
85.60
79.14
72.59
65.36
55.68
41.37
21.01
-5.31
-35.71
-67.13
-96.07
-119.47
-135.16
-142.02
-140.03
-130.20
-114.42
-95.30
-75.68
-58.17
-44.57
-35.61
-30.88
-29.13
-28.75
-28.38
-27.26
-25.35
-23.12
-21.20
-20.07
-19.92
-20.56
-21.63
-22.69
-23.39
-23.57
-23.29
-22.79
-22.42
-22.48
-23.15
-24.41
-26.06
-27.89
-29.77
-31.71
-33.86
-36.42
-39.63
-43.67
-48.66
-54.47
-60.54
-65.86
-69.04
-68.76
-64.23
-55.58
-43.85
-30.63
-17.61
-6.02
3.50
10.86
16.26
19.97
22.18
23.07
22.84
21.77
20.22
18.52
17.04
16.04
15.66
15.90
16.54
17.25
17.65
17.39
16.27
14.21
11.22
7.35
2.70
-2.56
-8.12
-13.59
-18.61
-23.05
-27.06
-31.13
-35.78
-41.19
-46.93
-51.91
-54.65
-53.82
-48.79
-39.92
-28.47
-16.16
-4.54
5.46
13.70
20.64
26.90
32.86
38.45
43.25
46.70
48.53
48.91
48.45
48.04
48.47
50.03
52.47
55.04
56.90
57.51
56.96
56.03
55.84
57.39
61.03
66.27
71.91
76.38
78.03
75.16
66.05
49.10
23.31
-11.00
-51.73
-95.15
-136.86
-172.92
-200.89
-219.94
-230.14
-231.51
-223.52
-205.49
-177.67
-142.19
-103.17
-65.68
-33.92
-9.92
6.79
18.12
25.84
30.36
30.66
25.32
14.06
-1.22
-16.62
-27.30
-29.26
-20.84
-3.33
19.39
42.28
60.79
72.39
77.08
76.95
74.78
72.55
70.59
67.71
62.30
53.62
42.45
30.72
20.54
13.07
8.04
4.11
-0.33
-6.22
-13.32
-20.35
-25.47
-27.01
-24.02
-16.44
-5.00
9.08
24.34
39.29
52.54
62.94
69.70
72.49
71.52
67.34
60.73
52.51
43.51
34.63
26.85
21.09
17.96
17.40
18.56
20.06
20.48
19.01
15.80
11.97
9.17
8.93
12.06
18.35
26.74
35.84
44.53
52.48
60.33
69.48
81.56
97.80
118.18
140.94
162.42
177.75
182.03
172.03
147.61
112.36
73.00
37.56
12.97
2.94
6.88
20.23
35.98
46.81
47.16
34.54
9.82
-23.33
-59.72
-94.05
-122.04
-141.12
-150.64
-151.77
-147.04
-139.69
-132.75
-128.09
-125.78
-123.84
-118.92
-107.55
-87.74
-60.02
-27.51
5.07
33.05
53.38
65.35
70.37
70.97
69.55
67.59
65.38
62.36
57.62
50.38
40.20
27.06
11.42
-5.68
-22.57
-37.11
-47.16
-51.24
-49.30
-42.95
-35.13
-29.21
-27.81
-31.95
-40.85
-52.40
-64.14
-74.11
-81.27
-85.49
-87.13
-86.69
-84.61
-81.29
-77.21
-73.00
-69.27
-66.45
-64.58
-63.34
-62.17
-60.57
-58.35
-55.70
-53.08
-50.96
-49.51
-48.46
-47.24
-45.25
-42.30
-38.77
-35.61
-33.95
-34.63
-37.82
-42.82
-48.21
-52.23
-53.33
-50.58
-43.97
-34.28
-22.86
-11.12
-0.10
9.65
18.10
25.40
31.65
36.77
40.49
42.59
43.06
42.20
40.53
38.58
36.79
35.38
34.40
33.80
33.50
33.41
33.44
33.41
33.14
32.39
30.99
28.86
25.95
22.32
18.07
13.40
8.61
4.09
0.21
-2.76
-4.82
-6.22
-7.38
-8.73
-10.47
-12.51
-14.37
-15.27
-14.25
-10.34
-2.80
8.65
23.69
41.36
60.33
79.30
97.36
114.18
129.84
144.29
156.92
166.26
170.40
167.64
157.26
139.91
117.41
92.14
66.37
41.88
19.75
0.59
-15.30
-27.71
-36.48
-41.49
-42.78
-40.59
-35.50
-28.55
-21.12
-14.81
-11.04
-10.68
-13.82
-19.81
-27.56
-35.86
-43.69
-50.43
-55.85
-59.99
-63.07
-65.36
-67.08
-68.44
-69.49
-70.05
-69.66
-67.58
-63.05
-55.61
-45.39
-33.17
-20.12
-7.38
4.35
14.97
24.76
34.07
43.14
52.03
60.77
69.50
78.39
87.31
95.62
102.07
105.05
103.13
95.60
82.70
65.52
45.56
24.19
2.32
-19.72
-41.91
-64.29
-86.59
-108.16
-128.05
-145.31
-159.40
-170.41
-179.05
-186.39
-193.40
-200.45
-207.15
-212.26
-214.11
-211.10
-202.18
-187.31
-167.49
-144.50
-120.30
-96.37
-73.19
-50.26
-26.54
-1.22
25.58
52.59
77.68
98.65
113.97
123.18
126.79
125.75
120.88
112.63
101.37
87.91
73.84
61.31
52.34
47.86
47.32
48.92
50.46
50.39
48.21
44.34
39.50
34.22
28.71
23.19
18.21
14.53
12.74
12.70
13.43
13.49
11.73
7.85
2.64
-2.35
-5.37
-5.02
-0.67
7.11
16.40
24.02
26.12
19.46
2.63
-23.13
-53.95
-84.40
-109.10
-124.12
-127.88
-120.98
-105.56
-84.44
-60.43
-35.94
-12.94
7.13
23.43
35.71
44.34
50.16
54.14
57.18
59.75
61.86
63.16
63.18
61.67
58.72
54.88
50.98
47.93
46.44
46.85
48.97
52.14
55.41
57.87
58.95
58.63
57.39
56.00
55.19
55.39
56.66
58.70
61.03
63.12
64.43
64.43
62.61
58.66
52.60
44.88
36.30
27.63
19.27
11.06
2.43
-7.12
-17.59
-28.25
-37.79
-44.85
-48.62
-49.09
-46.99
-43.47
-39.63
-36.28
-33.93
-32.82
-33.05
-34.60
-37.21
-40.45
-43.60
-45.86
-46.42
-44.70
-40.50
-34.08
-26.14
-17.58
-9.28
-1.78
4.77
10.53
15.67
20.19
23.76
25.90
26.15
24.36
20.71
15.64
9.68
3.28
-3.28
-9.91
-16.62
-23.54
-30.89
-38.88
-47.55
-56.47
-64.68
-70.68
-72.98
-70.64
-63.69
-53.16
-40.68
-27.88
-15.81
-4.88
4.92
13.60
20.93
26.54
30.08
31.54
31.27
29.86
27.84
25.64
23.48
21.45
19.62
17.99
16.51
15.08
13.58
11.95
10.22
8.38
6.36
3.97
0.99
-2.71
-6.99
-11.51
-15.87
-19.78
-23.21
-26.32
-29.41
-32.73
-36.51
-41.00
-46.54
-53.43
-61.69
-70.76
-79.32
-85.59
-87.78
-84.76
-76.46
-63.86
-48.62
-32.56
-17.13
-3.22
8.77
18.67
26.43
31.96
35.28
36.60
36.39
35.31
33.99
32.89
32.08
31.31
30.18
28.32
25.59
22.12
18.22
14.19
10.23
6.32
2.26
-2.30
-7.71
-14.24
-21.92
-30.55
-39.66
-48.65
-56.91
-64.08
-70.08
-75.15
-79.68
-84.15
-88.88
-93.98
-99.12
-103.56
-106.13
-105.64
-101.18
-92.58
-80.54
-66.32
-51.39
-36.78
-22.80
-9.11
4.90
19.62
34.98
50.68
66.53
82.85
100.38
120.01
142.20
166.63
192.14
217.04
239.50
257.71
269.86
274.19
269.52
256.10
236.34
214.54
195.45
182.31
175.17
170.80
164.24
151.18
129.96
101.96
70.50
38.94
9.28
-18.09
-43.49
-67.01
-88.05
-105.78
-119.88
-130.96
-140.27
-148.89
-156.91
-163.10
-165.45
-162.16
-152.58
-137.75
-120.12
-102.76
-88.32
-78.34
-72.93
-71.12
-71.44
-72.47
-73.21
-73.15
-72.11
-70.03
-66.87
-62.53
-56.95
-50.16
-42.31
-33.73
-24.91
-16.53
-9.29
-3.74
-0.13
1.73
2.38
2.47
2.53
2.81
3.30
3.82
4.15
4.14
3.71
2.91
1.92
1.00
0.42
0.18
-0.03
-0.89
-3.09
-6.99
-12.14
-17.39
-21.09
-21.74
-18.44
-11.19
-0.73
11.74
24.97
37.86
49.46
58.94
65.54
68.68
68.18
64.48
58.65
52.14
46.33
42.17
39.83
38.84
38.42
37.81
36.68
35.13
33.48
32.05
30.85
29.61
27.83
25.09
21.27
16.67
11.93
7.92
5.39
4.71
5.76
7.83
9.82
10.45
8.62
3.66
-4.43
-14.82
-25.78
-34.96
-39.98
-39.24
-32.59
-21.54
-8.75
2.95
11.57
16.48
18.24
17.92
16.35
13.85
10.37
6.00
1.33
-2.69
-5.09
-5.44
-4.06
-1.78
0.37
1.70
2.05
1.71
1.12
0.53
-0.17
-1.43
-3.73
-7.32
-12.04
-17.32
-22.41
-26.73
-30.10
-32.80
-35.52
-39.03
-43.99
-50.58
-58.39
-66.39
-73.07
-76.77
-76.08
-70.36
-59.86
-45.85
-30.12
-14.54
-0.49
11.32
20.85
28.33
33.97
37.81
39.81
40.06
38.94
37.10
35.30
34.09
33.72
34.05
34.69
35.17
35.12
34.36
32.92
30.94
28.59
25.91
22.77
18.97
14.32
8.89
3.03
-2.72
-7.84
-12.10
-15.70
-19.18
-23.25
-28.50
-35.17
-43.03
-51.43
-59.28
-65.26
-68.09
-66.79
-61.03
-51.24
-38.59
-24.60
-10.77
1.85
12.77
22.00
29.72
36.08
41.00
44.27
45.81
45.75
44.55
42.85
41.23
40.04
39.30
38.72
37.95
36.73
35.04
33.04
30.97
28.95
26.89
24.51
21.47
17.59
12.95
7.85
2.74
-1.96
-6.04
-9.50
-12.54
-15.48
-18.65
-22.33
-26.78
-32.14
-38.31
-44.81
-50.65
-54.54
-55.18
-51.78
-44.36
-33.84
-21.73
-9.62
1.31
10.53
18.07
24.18
29.06
32.68
34.94
35.84
35.69
35.06
34.60
34.76
35.65
37.03
38.42
39.34
39.45
38.69
37.17
35.10
32.65
29.85
26.56
22.53
17.57
11.69
5.18
-1.41
-7.46
-12.52
-16.48
-19.66
-22.73
-26.49
-31.59
-38.33
-46.41
-54.92
-62.48
-67.48
-68.61
-65.17
-57.30
-45.98
-32.69
-19.02
-6.24
4.88
14.01
21.15
26.42
29.92
31.81
32.36
32.01
31.32
30.79
30.74
31.19
31.94
32.67
33.10
33.09
32.60
31.74
30.61
29.31
27.87
26.29
24.45
22.22
19.49
16.28
12.81
9.43
6.51
4.20
2.38
0.67
-1.43
-4.37
-8.42
-13.69
-20.14
-27.53
-35.38
-42.80
-48.62
-51.55
-50.60
-45.52
-36.90
-26.03
-14.41
-3.30
6.64
15.31
22.91
29.53
35.04
39.07
41.30
41.69
40.55
38.42
35.81
33.09
30.42
27.85
25.40
23.15
21.17
19.47
17.95
16.43
14.76
12.80
10.47
7.71
4.53
0.99
-2.68
-6.21
-9.37
-12.16
-14.83
-17.77
-21.32
-25.51
-30.03
-34.30
-37.86
-40.53
-42.50
-44.25
-46.22
-48.77
-52.02
-55.96
-60.38
-64.83
-68.51
-70.31
-69.17
-64.40
-56.02
-44.86
-32.22
-19.43
-7.47
3.20
12.49
20.44
27.02
32.14
35.70
37.81
38.78
39.06
39.12
39.29
39.66
40.13
40.49
40.59
40.39
39.97
39.50
39.10
38.77
38.36
37.57
36.15
33.92
30.96
27.56
24.13
21.05
18.49
16.35
14.31
11.98
9.12
5.67
1.87
-1.96
-5.53
-8.73
-11.62
-14.41
-17.37
-20.71
-24.57
-29.03
-34.06
-39.47
-44.80
-49.31
-52.08
-52.20
-49.16
-43.05
-34.55
-24.75
-14.78
-5.54
2.48
9.08
14.28
18.10
20.59
21.83
22.02
21.50
20.67
19.96
19.64
19.85
20.55
21.51
22.49
23.23
23.57
23.44
22.85
21.80
20.31
18.36
15.97
13.23
10.35
7.60
5.21
3.35
1.93
0.71
-0.63
-2.37
-4.57
-7.10
-9.65
-11.90
-13.68
-15.10
-16.42
-18.01
-20.21
-23.18
-26.89
-31.06
-35.11
-38.24
-39.54
-38.21
-33.85
-26.69
-17.51
-7.45
2.36
11.07
18.32
24.06
28.42
31.50
33.36
34.06
33.80
32.90
31.81
30.90
30.36
30.14
29.99
29.65
28.93
27.77
26.27
24.59
22.80
20.87
18.68
16.08
13.03
9.65
6.21
3.05
0.44
-1.54
-3.04
-4.42
-6.09
-8.36
-11.32
-14.79
-18.41
-21.79
-24.68
-27.11
-29.39
-32.00
-35.38
-39.76
-45.02
-50.56
-55.46
-58.60
-58.99
-56.08
-49.96
-41.34
-31.35
-21.21
-11.84
-3.73
3.02
8.52
12.90
16.20
18.42
19.60
19.90
19.59
19.02
18.50
18.24
18.26
18.47
18.70
18.81
18.76
18.59
18.39
18.20
17.97
17.52
16.60
15.03
12.76
9.94
6.86
3.87
1.22
-1.04
-3.08
-5.20
-7.69
-10.71
-14.23
-18.01
-21.72
-25.10
-28.02
-30.56
-32.96
-35.57
-38.76
-42.80
-47.73
-53.27
-58.76
-63.20
-65.46
-64.64
-60.36
-52.92
-43.21
-32.46
-21.78
-11.94
-3.22
4.36
10.85
16.19
20.24
22.91
24.32
24.83
24.96
25.11
25.53
26.20
26.98
27.70
28.22
28.50
28.52
28.31
27.91
27.38
26.75
25.94
24.81
23.12
20.74
17.72
14.37
11.15
8.43
6.34
4.62
2.82
0.45
-2.70
-6.52
-10.61
-14.50
-17.86
-20.66
-23.15
-25.77
-28.99
-33.13
-38.35
-44.55
-51.31
-57.89
-63.23
-66.20
-65.84
-61.74
-54.15
-43.96
-32.37
-20.55
-9.37
0.70
9.44
16.72
22.39
26.31
28.49
29.23
29.07
28.69
28.67
29.34
30.66
32.33
33.96
35.23
36.01
36.36
36.45
36.38
36.12
35.51
34.33
32.49
30.04
27.21
24.25
21.36
18.64
16.05
13.50
10.86
8.03
4.92
1.48
-2.25
-6.13
-9.97
-13.53
-16.71
-19.56
-22.34
-25.40
-29.09
-33.69
-39.21
-45.41
-51.62
-56.87
-59.95
-59.83
-55.88
-48.19
-37.50
-25.04
-12.13
0.10
10.87
19.74
26.55
31.29
34.07
35.18
35.07
34.28
33.33
32.60
32.22
32.19
32.40
32.78
33.29
33.89
34.47
34.85
34.80
34.09
32.62
30.43
27.67
24.58
21.37
18.14
14.93
11.68
8.34
4.84
1.15
-2.69
-6.57
-10.34
-13.85
-17.02
-19.94
-22.88
-26.21
-30.38
-35.65
-41.91
-48.60
-54.70
-58.90
-60.02
-57.29
-50.67
-40.83
-28.96
-16.36
-4.15
6.94
16.55
24.49
30.68
34.99
37.44
38.21
37.78
36.79
35.88
35.46
35.68
36.40
37.33
38.23
38.88
39.19
39.10
38.50
37.28
35.30
32.54
29.07
25.06
20.78
16.50
12.39
8.50
4.75
0.93
-3.14
-7.57
-12.26
-17.00
-21.49
-25.53
-29.16
-32.62
-36.33
-40.69
-46.00
-52.27
-59.08
-65.60
-70.63
-72.85
-71.20
-65.29
-55.56
-43.19
-29.74
-16.66
-4.88
5.29
13.95
21.33
27.54
32.48
36.04
38.19
39.14
39.27
39.06
38.83
38.77
38.82
38.84
38.68
38.33
37.84
37.28
36.59
35.60
34.02
31.61
28.33
24.37
20.19
16.25
12.88
10.08
7.56
4.88
1.67
-2.20
-6.56
-11.02
-15.17
-18.75
-21.75
-24.43
-27.22
-30.61
-34.98
-40.46
-46.78
-53.27
-58.82
-62.20
-62.33
-58.64
-51.26
-41.04
-29.24
-17.15
-5.81
4.21
12.73
19.79
25.47
29.82
32.87
34.74
35.66
36.00
36.19
36.60
37.40
38.52
39.70
40.61
41.04
40.98
40.57
39.99
39.30
38.36
36.90
34.66
31.60
27.91
24.00
20.32
17.15
14.51
12.13
9.65
6.70
3.14
-0.96
-5.27
-9.40
-13.05
-16.08
-18.64
-21.05
-23.73
-27.09
-31.42
-36.79
-42.93
-49.14
-54.34
-57.29
-56.99
-52.98
-45.59
-35.80
-24.92
-14.14
-4.26
4.37
11.69
17.71
22.31
25.35
26.79
26.83
25.97
24.90
24.21
24.22
24.91
25.95
26.90
27.48
27.58
27.35
26.97
26.57
26.06
25.21
23.78
21.62
18.83
15.72
12.68
10.02
7.84
5.99
4.12
1.92
-0.77
-3.87
-7.07
-10.05
-12.54
-14.55
-16.30
-18.13
-20.46
-23.57
-27.59
-32.46
-37.86
-43.13
-47.36
-49.47
-48.57
-44.27
-36.92
-27.47
-17.24
-7.41
1.21
8.31
13.93
18.19
21.16
22.86
23.38
22.98
22.06
21.12
20.52
20.45
20.89
21.60
22.29
22.73
22.77
22.38
21.60
20.49
19.02
17.12
14.76
12.02
9.17
6.53
4.34
2.61
1.10
-0.60
-2.81
-5.64
-8.94
-12.36
-15.53
-18.27
-20.61
-22.80
-25.22
-28.22
-32.05
-36.66
-41.67
-46.35
-49.70
-50.73
-48.77
-43.69
-36.02
-26.73
-16.99
-7.79
0.25
6.96
12.41
16.77
20.14
22.52
23.90
24.36
24.20
23.80
23.55
23.69
24.14
24.64
24.87
24.59
23.84
22.83
21.82
20.98
20.23
19.34
18.04
16.16
13.77
11.07
8.38
5.90
3.72
1.73
-0.26
-2.48
-5.08
-8.04
-11.20
-14.32
-17.16
-19.63
-21.82
-24.00
-26.53
-29.78
-33.95
-38.96
-44.34
-49.21
-52.51
-53.22
-50.77
-45.25
-37.36
-28.19
-18.88
-10.24
-2.63
3.92
9.55
14.34
18.21
21.00
22.65
23.34
23.47
23.53
23.87
24.61
25.53
26.31
26.63
26.43
25.88
25.28
24.88
24.71
24.60
24.21
23.25
21.56
19.17
16.28
13.17
10.13
7.34
4.88
2.69
0.61
-1.59
-4.09
-6.98
-10.21
-13.61
-16.92
-19.91
-22.52
-24.86
-27.20
-29.91
-33.33
-37.63
-42.67
-47.91
-52.42
-55.13
-55.10
-51.83
-45.48
-36.82
-26.95
-16.99
-7.75
0.35
7.21
12.89
17.39
20.72
22.86
23.93
24.24
24.21
24.29
24.73
25.56
26.54
27.33
27.67
27.47
26.92
26.31
25.90
25.74
25.67
25.32
24.36
22.60
20.13
17.20
14.16
11.31
8.83
6.77
5.08
3.59
2.06
0.24
-2.03
-4.76
-7.78
-10.77
-13.49
-15.81
-17.86
-19.95
-22.45
-25.70
-29.84
-34.77
-40.10
-45.11
-48.81
-50.22
-48.60
-43.79
-36.31
-27.18
-17.60
-8.55
-0.60
6.11
11.67
16.12
19.39
21.33
21.88
21.26
19.95
18.58
17.68
17.47
17.89
18.64
19.38
19.92
20.22
20.34
20.33
20.12
19.54
18.44
16.73
14.49
11.94
9.37
6.98
4.88
2.99
1.09
-1.06
-3.64
-6.65
-9.91
-13.10
-15.91
-18.21
-20.05
-21.74
-23.74
-26.47
-30.21
-34.95
-40.32
-45.59
-49.78
-51.89
-51.15
-47.28
-40.57
-31.80
-22.04
-12.30
-3.34
4.39
10.74
15.69
19.27
21.54
22.65
22.85
22.52
22.10
21.95
22.26
23.02
24.01
24.94
25.57
25.78
25.57
25.04
24.30
23.37
22.19
20.64
18.66
16.27
13.59
10.81
8.15
5.70
3.44
1.18
-1.30
-4.17
-7.44
-10.91
-14.27
-17.23
-19.69
-21.80
-23.94
-26.57
-30.10
-34.69
-40.24
-46.24
-51.84
-55.93
-57.39
-55.42
-49.75
-40.91
-29.98
-18.34
-7.17
2.80
11.37
18.65
24.80
29.84
33.63
36.01
36.97
36.78
35.86
34.71
33.69
32.95
32.40
31.85
31.13
30.16
28.99
27.76
26.56
25.42
24.20
22.73
20.86
18.59
16.11
13.71
11.61
9.83
8.22
6.44
4.16
1.18
-2.48
-6.58
-10.77
-14.71
-18.18
-21.18
-23.86
-26.55
-29.58
-33.29
-37.92
-43.50
-49.73
-55.89
-60.91
-63.59
-62.93
-58.53
-50.72
-40.49
-29.16
-18.00
-7.89
0.76
7.95
13.88
18.76
22.66
25.54
27.39
28.31
28.55
28.49
28.49
28.75
29.28
29.94
30.50
30.83
30.89
30.77
30.55
30.23
29.67
28.63
26.89
24.34
21.10
17.49
13.90
10.67
7.93
5.59
3.36
0.94
-1.87
-5.05
-8.41
-11.72
-14.76
-17.46
-19.90
-22.27
-24.79
-27.69
-31.15
-35.32
-40.18
-45.50
-50.65
-54.69
-56.52
-55.27
-50.59
-42.86
-33.06
-22.46
-12.22
-3.08
4.68
11.08
16.23
20.18
22.94
24.54
25.16
25.15
24.92
24.85
25.10
25.66
26.33
26.89
27.16
27.07
26.66
25.98
25.09
23.97
22.57
20.85
18.79
16.49
14.07
11.68
9.38
7.13
4.77
2.16
-0.80
-4.04
-7.36
-10.49
-13.23
-15.53
-17.52
-19.49
-21.74
-24.55
-28.08
-32.33
-37.08
-41.79
-45.67
-47.76
-47.27
-43.80
-37.58
-29.38
-20.26
-11.23
-2.98
4.14
10.06
14.77
18.27
20.54
21.64
21.77
21.26
20.52
19.91
19.63
19.74
20.15
20.70
21.24
21.66
21.90
21.88
21.50
20.65
19.32
17.59
15.66
13.78
12.07
10.50
8.82
6.73
4.01
0.61
-3.31
-7.44
-11.47
-15.15
-18.34
-21.09
-23.60
-26.19
-29.22
-32.98
-37.49
-42.38
-46.87
-49.89
-50.39
-47.73
-41.93
-33.64
-23.97
-14.05
-4.71
3.66
11.00
17.39
22.80
27.05
29.93
31.41
31.76
31.49
31.16
31.14
31.47
31.92
32.17
32.03
31.52
30.83
30.21
29.75
29.34
28.71
27.51
25.53
22.76
19.40
15.82
12.36
9.26
6.57
4.12
1.62
-1.25
-4.63
-8.44
-12.38
-16.03
-19.11
-21.62
-23.89
-26.47
-29.90
-34.52
-40.23
-46.43
-52.12
-56.11
-57.30
-55.02
-49.26
-40.68
-30.42
-19.76
-9.70
-0.83
6.76
13.22
18.72
23.31
26.93
29.47
31.01
31.79
32.19
32.55
33.05
33.63
34.07
34.12
33.65
32.76
31.69
30.73
30.02
29.41
28.56
27.14
24.93
22.03
18.79
15.67
13.00
10.88
9.12
7.40
5.35
2.79
-0.29
-3.70
-7.16
-10.41
-13.27
-15.74
-18.02
-20.45
-23.43
-27.31
-32.20
-37.88
-43.77
-48.88
-52.14
-52.58
-49.71
-43.69
-35.27
-25.57
-15.71
-6.50
1.64
8.68
14.68
19.72
23.76
26.71
28.62
29.63
30.04
30.18
30.29
30.48
30.70
30.88
30.91
30.79
30.59
30.37
30.16
29.90
29.46
28.66
27.38
25.54
23.21
20.56
17.81
15.17
12.76
10.58
8.55
6.51
4.30
1.85
-0.86
-3.76
-6.68
-9.51
-12.17
-14.67
-17.14
-19.78
-22.83
-26.51
-30.88
-35.75
-40.59
-44.58
-46.76
-46.37
-43.04
-37.00
-28.97
-19.96
-10.96
-2.66
4.52
10.47
15.17
18.62
20.76
21.62
21.37
20.37
19.13
18.17
17.82
18.14
18.92
19.81
20.50
20.83
20.87
20.77
20.64
20.46
20.05
19.19
17.73
15.71
13.32
10.84
8.50
6.39
4.44
2.50
0.42
-1.82
-4.12
-6.28
-8.17
-9.77
-11.28
-13.00
-15.27
-18.34
-22.28
-26.99
-32.12
-37.12
-41.21
-43.53
-43.36
-40.31
-34.57
-26.86
-18.19
-9.57
-1.73
5.02
10.60
15.03
18.28
20.25
20.95
20.54
19.47
18.31
17.55
17.41
17.82
18.47
19.03
19.32
19.34
19.23
19.11
18.97
18.63
17.82
16.33
14.13
11.44
8.67
6.29
4.66
3.88
3.71
3.61
2.90
0.94
-2.66
-7.88
-14.22
-20.78
-26.53
-30.61
-32.71
-33.22
-33.08
-33.41
-35.00
-37.85
-41.18
-43.73
-44.24
-42.07
-37.29
-30.62
-23.05
-15.38
-8.11
-1.40
4.69
10.04
14.43
17.57
19.31
19.75
19.28
18.48
17.89
17.86
18.41
19.29
20.14
20.65
20.74
20.53
20.26
20.08
20.01
19.82
19.17
17.76
15.49
12.55
9.36
6.40
4.04
2.37
1.13
-0.08
-1.69
-3.91
-6.69
-9.73
-12.70
-15.33
-17.58
-19.62
-21.74
-24.29
-27.51
-31.56
-36.40
-41.78
-47.13
-51.61
-54.25
-54.21
-51.04
-44.92
-36.55
-26.97
-17.20
-8.00
0.26
7.48
13.68
18.85
22.89
25.73
27.37
28.02
28.03
27.80
27.67
27.85
28.33
28.99
29.60
29.97
30.02
29.75
29.28
28.77
28.30
27.83
27.19
26.13
24.49
22.33
19.96
17.82
16.29
15.48
15.13
14.77
13.88
12.19
9.80
7.07
4.46
2.34
0.81
-0.22
-1.00
-1.90
-3.28
-5.48
-8.60
-12.39
-16.08
-18.47
-18.21
-14.34
-6.69
3.94
15.96
27.61
37.51
45.08
50.62
54.93
58.91
63.21
68.07
73.37
78.84
84.19
89.22
93.77
97.62
100.38
101.50
100.35
96.49
89.89
81.07
71.01
60.90
51.84
44.63
39.66
36.81
35.47
34.62
33.02
29.53
23.50
14.95
4.55
-6.75
-18.15
-29.25
-39.96
-50.23
-59.77
-68.09
-74.82
-80.17
-85.11
-91.15
-99.71
-111.39
-125.53
-140.31
-153.28
-162.19
-165.60
-163.25
-155.85
-144.65
-131.01
-116.11
-100.74
-85.46
-70.58
-56.18
-42.07
-27.72
-12.38
4.54
23.07
42.24
60.19
74.53
83.11
84.72
79.50
69.00
55.74
42.80
33.15
29.13
31.83
40.72
53.62
67.10
77.36
81.20
76.81
64.11
44.42
20.05
-6.38
-32.33
-55.69
-74.95
-89.41
-99.23
-105.30
-109.01
-111.76
-114.54
-117.61
-120.54
-122.32
-121.89
-118.47
-111.91
-102.72
-91.89
-80.55
-69.72
-60.15
-52.22
-46.02
-41.37
-37.90
-35.08
-32.35
-29.19
-25.30
-20.61
-15.39
-10.15
-5.57
-2.29
-0.53
0.20
1.25
4.47
11.58
23.42
39.45
57.79
75.75
90.57
100.01
102.62
97.65
85.07
65.55
40.70
13.04
-14.24
-37.98
-55.80
-66.75
-71.50
-71.93
-70.54
-69.73
-71.21
-75.65
-82.67
-90.93
-98.45
-103.07
-102.92
-96.84
-84.74
-67.63
-47.35
-26.22
-6.36
10.73
24.42
34.91
42.86
48.97
53.68
57.15
59.41
60.50
60.68
60.31
59.74
59.17
58.64
58.09
57.51
56.93
56.41
55.99
55.49
54.65
53.10
50.62
47.20
43.06
38.69
34.63
31.35
29.08
27.70
26.77
25.68
23.85
21.00
17.19
12.88
8.70
5.20
2.66
0.97
-0.29
-1.69
-3.76
-6.83
-10.90
-15.45
-19.53
-21.86
-21.14
-16.43
-7.57
4.80
19.41
34.81
49.84
63.91
76.96
89.11
100.30
110.15
118.03
123.43
126.37
127.46
127.81
128.65
130.93
134.99
140.40
145.95
149.60
148.79
140.84
123.72
96.71
60.91
19.17
-24.60
-66.43
-103.21
-133.22
-156.05
-172.26
-182.92
-189.32
-192.86
-194.95
-196.78
-198.93
-201.16
-202.41
-201.17
-196.12
-186.55
-172.61
-155.10
-135.14
-113.87
-92.19
-70.65
-49.42
-28.28
-6.78
15.45
38.35
61.27
82.97
102.11
117.74
129.67
138.39
144.72
149.34
152.49
153.95
153.13
149.43
142.44
132.30
119.85
106.62
94.43
84.90
78.76
75.60
74.15
72.82
70.46
66.62
61.43
55.14
47.74
38.96
28.65
17.13
5.36
-5.41
-14.21
-20.76
-25.57
-29.63
-33.91
-38.98
-44.97
-51.78
-59.26
-67.31
-75.60
-83.40
-89.50
-92.43
-91.00
-84.75
-74.21
-60.77
-46.22
-32.26
-20.10
-10.37
-3.20
1.64
4.51
5.87
6.11
5.53
4.27
2.40
-0.06
-2.96
-6.02
-8.86
-11.10
-12.38
-12.40
-10.87
-7.53
-2.32
4.50
12.25
20.00
26.83
32.16
35.90
38.42
40.20
41.57
42.54
42.89
42.31
40.54
37.40
32.63
25.82
16.49
4.44
-9.94
-25.58
-40.95
-54.67
-65.97
-74.92
-82.08
-87.94
-92.41
-94.74
-93.93
-89.41
-81.51
-71.56
-61.35
-52.51
-45.86
-41.38
-38.34
-35.85
-33.13
-29.58
-24.57
-17.27
-6.98
6.35
21.49
35.95
46.65
51.16
48.83
41.10
30.81
20.85
13.11
8.03
5.22
4.26
5.36
9.12
15.91
25.12
35.03
43.42
48.44
49.49
47.34
43.71
40.48
38.86
39.01
40.07
40.60
39.13
34.73
27.36
17.95
8.17
-0.05
-5.08
-6.01
-2.80
3.86
12.85
22.93
32.90
41.72
48.56
52.82
54.17
52.58
48.29
41.93
34.49
27.31
21.74
18.77
18.58
20.40
22.81
24.16
23.05
18.54
10.06
-2.81
-20.21
-41.79
-66.31
-91.55
-114.64
-132.51
-142.42
