1607058592.00
64.000000
-0.00
-0.00
-0.00
-0.00
-0.00
-0.00
-0.00
-0.00
-0.00
-0.00
0.00
0.01
0.01
-0.00
-0.03
-0.05
-0.05
0.00
0.13
0.36
0.66
1.01
1.37
1.72
2.06
2.40
2.79
3.24
3.80
4.42
5.06
5.66
6.20
6.68
7.15
7.68
8.31
9.14
10.09
11.04
11.88
12.56
13.14
13.76
14.65
15.96
17.91
20.32
22.90
25.38
27.58
29.57
31.68
34.32
37.81
42.54
48.15
54.10
59.83
64.97
69.58
74.14
79.34
85.71
93.76
103.00
112.62
121.73
129.77
136.75
143.30
150.75
157.77
166.64
177.95
191.79
206.97
220.57
228.25
225.36
208.53
176.87
132.76
80.05
23.07
-34.94
-92.44
-149.16
-205.23
-260.37
-313.74
-363.87
-409.83
-450.91
-486.50
-515.74
-537.23
-549.22
-549.96
-538.37
-514.21
-478.67
-433.88
-382.45
-327.02
-269.84
-212.63
-156.66
-102.95
-52.37
-5.90
35.58
71.43
101.35
125.50
144.38
158.69
169.15
176.37
180.75
182.57
182.07
179.51
175.23
169.65
163.18
156.15
148.81
141.30
133.69
126.02
118.33
110.69
103.16
95.80
88.68
81.83
75.25
68.95
62.95
57.25
51.86
46.78
42.03
37.59
33.45
29.61
26.07
22.81
19.83
17.11
14.67
12.48
10.54
8.83
7.35
6.07
4.97
4.05
3.27
2.62
2.09
1.65
1.30
1.01
0.79
0.61
0.48
0.37
0.29
0.24
0.21
0.19
0.18
0.18
0.20
0.22
0.25
0.28
0.32
0.36
0.41
0.45
0.50
0.55
0.60
0.65
0.70
0.76
0.83
0.90
0.97
1.06
1.15
1.26
1.37
1.51
1.65
1.82
2.00
2.21
2.44
2.69
2.97
3.27
3.61
3.98
4.39
4.83
5.30
5.81
6.36
6.95
7.59
8.27
8.99
9.75
10.57
11.43
12.33
13.27
14.27
15.34
16.47
17.66
18.90
20.18
21.45
22.65
23.69
24.47
24.87
24.77
24.06
22.66
20.54
17.71
14.24
10.23
5.85
1.31
-3.19
-7.43
-11.22
-14.43
-16.93
-18.69
-19.70
-20.00
-19.66
-18.80
-17.52
-15.95
-14.19
-12.36
-10.51
-8.68
-6.86
-5.06
-3.24
-1.42
0.45
2.36
4.28
6.21
8.18
10.30
12.50
14.81
17.24
19.78
22.36
24.93
27.44
29.96
32.70
35.62
38.82
42.35
46.21
50.25
54.26
58.12
61.87
65.84
70.01
74.60
79.72
85.28
90.93
96.17
100.61
104.24
107.50
110.51
113.65
117.08
120.37
122.50
121.95
117.02
105.91
91.86
76.56
61.49
47.58
34.90
22.72
9.85
-4.87
-22.22
-42.21
-64.72
-88.38
-110.80
-129.00
-140.27
-143.13
-138.06
-127.34
-114.13
-101.80
-92.27
-85.82
-81.81
-79.61
-79.46
-82.37
-89.66
-101.92
-118.63
-137.32
-153.96
-163.91
-163.28
-150.32
-126.20
-94.76
-61.17
-30.49
-5.89
11.77
23.36
30.39
33.91
34.24
31.29
25.26
17.04
8.21
0.47
-5.01
-7.97
-9.02
-9.28
-9.81
-11.25
-13.64
-16.59
-19.53
-22.06
-24.11
-25.90
-27.88
-30.48
-34.06
-38.79
-44.73
-51.72
-59.45
-67.34
-74.67
-80.65
-84.81
-87.14
-88.25
-89.29
-91.65
-96.60
-104.78
-115.58
-126.76
-134.49
-134.15
-121.95
-96.51
-59.83
-16.99
25.54
62.06
89.30
106.92
116.70
121.11
122.04
120.47
116.74
111.30
104.91
98.63
93.33
89.34
86.36
83.74
80.83
77.29
73.09
68.34
63.01
56.91
49.65
40.91
30.73
19.57
8.23
-2.41
-11.68
-19.38
-25.78
-31.42
-36.79
-42.04
-46.86
-50.68
-52.99
-53.70
-53.40
-53.30
-54.92
-59.70
-68.34
-80.30
-93.44
-104.21
-108.41
-102.60
-85.41
-58.35
-25.52
7.78
36.72
58.48
72.63
80.52
84.09
84.83
83.32
79.59
73.66
66.05
57.74
49.88
43.29
38.19
34.20
30.67
26.98
22.88
18.49
14.18
10.30
6.94
3.85
0.58
-3.33
-8.06
-13.49
-19.13
-24.34
-28.59
-31.67
-33.83
-35.70
-38.10
-41.74
-46.92
-53.36
-60.22
-66.45
-71.09
-73.69
-74.40
-73.92
-73.21
-73.28
-74.91
-78.58
-84.15
-90.67
-96.17
-97.86
-92.93
-79.54
-57.78
-29.94
0.18
28.46
51.85
69.11
80.68
87.97
92.42
94.89
95.65
94.72
92.28
88.87
85.24
82.05
79.52
77.47
75.35
72.67
69.29
65.53
61.98
59.18
57.18
55.46
53.05
49.01
42.84
34.74
25.59
16.58
8.77
2.64
-2.02
-5.97
-10.17
-15.28
-21.41
-28.05
-34.37
-39.62
-43.41
-45.95
-47.87
-50.04
-53.34
-58.49
-65.84
-75.15
-85.21
-93.79
-97.98
-95.05
-83.52
-64.03
-39.24
-13.04
10.80
29.81
43.37
52.26
57.88
61.31
62.96
62.76
60.56
56.65
51.73
46.80
42.68
39.75
37.87
36.46
34.88
32.66
29.65
26.02
22.05
17.95
13.76
9.33
4.48
-0.97
-7.13
-14.03
-21.63
-29.79
-38.20
-46.41
-53.97
-60.57
-66.20
-71.20
-76.23
-82.08
-89.51
-98.96
-110.22
-122.16
-132.68
-139.11
-138.92
-130.70
-114.83
-93.40
-69.53
-46.24
-25.61
-8.35
5.88
17.91
28.46
37.89
46.26
53.56
59.77
64.92
69.00
71.92
73.59
74.01
73.38
72.12
70.66
69.30
68.07
66.70
64.72
61.65
57.28
51.64
45.10
38.10
30.95
23.70
16.23
8.39
0.25
-7.80
-15.18
-21.38
-26.24
-30.11
-33.79
-38.29
-44.51
-52.95
-63.35
-74.54
-84.44
-90.38
-89.84
-81.35
-65.07
-42.95
-18.12
6.12
27.28
44.21
57.00
66.38
73.09
77.56
79.94
80.38
79.27
77.24
75.00
72.97
71.24
69.57
67.61
65.20
62.48
59.84
57.63
55.95
54.46
52.49
49.29
44.42
37.97
30.61
23.29
16.86
11.70
7.53
3.61
-0.87
-6.41
-12.90
-19.70
-26.00
-31.20
-35.22
-38.54
-42.05
-46.74
-53.43
-62.43
-73.28
-84.57
-93.91
-98.50
-95.96
-85.28
-67.30
-44.63
-20.72
1.29
19.49
33.40
43.59
50.91
55.84
58.44
58.52
56.23
52.25
47.82
44.29
42.70
43.33
45.66
48.56
50.70
51.06
49.24
45.44
40.33
34.56
28.56
22.35
15.75
8.58
0.92
-6.84
-14.14
-20.50
-25.68
-29.80
-33.29
-36.71
-40.68
-45.77
-52.48
-61.02
-71.05
-81.36
-89.89
-94.07
-91.70
-81.75
-64.90
-43.36
-20.09
2.14
21.55
37.51
50.27
60.35
68.03
73.25
75.77
75.52
72.88
68.65
63.87
59.56
56.31
54.16
52.60
50.85
48.22
44.46
39.88
35.13
30.92
27.56
24.86
22.20
18.80
14.14
8.16
1.31
-5.65
-12.03
-17.43
-21.86
-25.72
-29.56
-33.92
-39.34
-46.24
-54.90
-65.16
-76.09
-85.80
-91.70
-91.19
-82.66
-66.28
-44.05
-19.19
4.94
25.81
42.20
54.05
61.94
66.66
68.89
69.32
68.66
67.74
67.26
67.58
68.56
69.56
69.73
68.37
65.31
60.94
56.12
51.73
48.29
45.68
43.23
40.08
35.64
29.88
23.26
16.46
10.01
4.04
-1.63
-7.30
-13.13
-19.02
-24.69
-29.87
-34.46
-38.63
-42.79
-47.53
-53.53
-61.35
-71.23
-82.62
-93.93
-102.60
-105.64
-100.67
-86.91
-65.62
-39.80
-13.22
10.77
30.14
44.31
53.78
59.34
61.66
61.19
58.40
54.10
49.49
45.81
43.94
43.99
45.27
46.60
46.87
45.56
42.91
39.84
37.37
36.11
35.94
36.07
35.40
33.07
28.79
22.92
16.30
9.84
4.09
-0.81
-5.21
-9.58
-14.32
-19.50
-24.84
-29.85
-34.01
-37.03
-38.97
-40.31
-41.81
-44.38
-48.87
-55.89
-65.42
-76.53
-87.21
-94.60
-95.76
-88.72
-73.36
-51.61
-26.86
-2.82
17.69
33.36
44.26
51.24
55.17
56.61
55.82
53.12
49.12
44.65
40.56
37.47
35.60
34.77
34.60
34.66
34.55
34.04
32.97
31.28
28.97
26.07
22.59
18.55
13.88
8.55
2.55
-3.98
-10.66
-17.02
-22.54
-26.93
-30.22
-32.80
-35.37
-38.65
-43.27
-49.59
-57.60
-66.76
-75.87
-83.10
-86.27
-83.46
-73.76
-57.74
-37.46
-15.85
4.26
20.88
33.31
41.90
47.44
50.60
51.64
50.55
47.45
42.85
37.73
33.24
30.26
29.07
29.26
29.95
30.25
29.61
28.07
26.02
23.99
22.24
20.58
18.51
15.43
11.01
5.27
-1.38
-8.33
-15.01
-21.01
-26.18
-30.59
-34.47
-38.22
-42.37
-47.49
-54.05
-62.07
-70.78
-78.55
-83.26
-82.89
-76.38
-64.05
-47.57
-29.35
-11.75
3.60
16.03
25.52
32.36
36.71
38.66
38.36
36.29
33.34
30.55
28.86
28.73
30.07
32.29
34.48
35.80
35.62
33.77
30.51
26.44
22.27
18.50
15.29
12.33
8.98
4.64
-0.99
-7.68
-14.73
-21.26
-26.58
-30.48
-33.23
-35.47
-37.93
-41.32
-46.25
-53.12
-61.92
-71.91
-81.32
-87.62
-88.10
-80.96
-66.18
-45.73
-22.95
-1.39
16.39
29.41
38.09
43.54
46.78
48.35
48.39
47.07
44.86
42.56
40.97
40.48
40.92
41.64
41.86
41.12
39.45
37.29
35.16
33.28
31.43
29.01
25.39
20.31
14.06
7.41
1.27
-3.71
-7.46
-10.49
-13.63
-17.64
-22.78
-28.74
-34.71
-39.78
-43.30
-45.19
-46.02
-46.81
-48.83
-53.17
-60.29
-69.63
-79.38
-86.80
-88.91
-83.58
-70.41
-51.00
-28.44
-6.17
13.17
28.41
39.78
48.22
54.59
59.12
61.56
61.61
59.38
55.61
51.45
48.04
46.01
45.27
45.10
44.53
42.77
39.56
35.17
30.33
25.81
22.11
19.36
17.16
14.83
11.52
6.51
-0.59
-9.77
-20.51
-31.89
-42.76
-51.96
-58.64
-62.67
-64.72
-66.30
-69.14
-74.45
-82.06
-90.04
-95.22
-94.21
-84.92
-67.47
-44.25
-18.99
4.59
24.02
38.48
48.50
55.06
58.86
60.07
58.62
54.74
49.32
43.87
39.98
38.68
39.94
42.60
44.94
45.37
43.15
38.61
32.94
27.60
23.62
21.17
19.66
18.00
15.19
10.67
4.53
-2.62
-9.97
-16.77
-22.59
-27.39
-31.43
-35.21
-39.30
-44.36
-50.99
-59.47
-69.52
-79.95
-88.67
-93.09
-90.95
-81.10
-64.16
-42.33
-18.81
3.30
21.80
35.76
45.33
51.23
54.19
54.80
53.54
50.94
47.69
44.56
42.14
40.71
40.16
40.18
40.44
40.82
41.36
42.12
42.95
43.38
42.76
40.49
36.40
30.82
24.55
18.47
13.17
8.65
4.27
-0.87
-7.55
-15.90
-25.32
-34.62
-42.48
-47.97
-50.92
-51.97
-52.39
-53.72
-57.38
-64.22
-74.10
-85.61
-96.07
-102.05
-100.44
-89.61
-70.23
-45.15
-18.49
5.79
25.14
38.87
47.83
53.52
57.24
59.62
60.67
60.29
58.59
56.15
53.84
52.46
52.45
53.64
55.35
56.63
56.62
54.88
51.45
46.80
41.53
36.04
30.36
24.23
17.24
9.19
0.29
-8.79
-17.06
-23.66
-28.16
-30.76
-32.25
-33.63
-35.86
-39.60
-45.23
-52.79
-61.94
-71.68
-80.23
-85.24
-84.47
-76.60
-61.95
-42.52
-21.39
-1.59
14.82
27.20
36.06
42.34
46.79
49.61
50.69
49.95
47.61
44.32
40.92
38.09
36.17
34.98
34.02
32.68
30.57
27.64
24.22
20.86
17.95
15.60
13.40
10.66
6.64
0.95
-6.25
-14.30
-22.25
-29.25
-34.87
-39.20
-42.69
-46.04
-49.93
-55.04
-61.85
-70.57
-80.71
-90.83
-98.55
-101.03
-95.98
-82.66
-62.30
-37.88
-13.10
8.85
26.14
38.49
46.66
51.79
54.79
56.25
56.51
55.92
54.92
53.96
53.32
53.02
52.87
52.59
51.95
50.92
49.60
48.12
46.52
44.66
42.24
39.02
34.87
29.96
24.52
18.83
12.92
6.68
-0.06
-7.32
-14.87
-22.20
-28.83
-34.45
-39.14
-43.38
-47.87
-53.48
-60.98
-70.76
-82.55
-94.98
-105.64
-111.44
-109.60
-98.73
-79.49
-54.58
-27.79
-2.77
18.05
33.92
45.38
53.53
59.32
63.23
65.42
66.04
65.48
64.41
63.45
62.99
62.96
62.97
62.50
61.25
59.30
57.02
54.84
52.92
50.97
48.43
44.71
39.52
33.08
26.00
19.04
12.74
7.28
2.39
-2.46
-7.76
-13.71
-20.10
-26.35
-31.76
-35.83
-38.56
-40.52
-42.79
-46.64
-53.11
-62.51
-73.97
-85.38
-93.75
-95.97
-89.94
-75.37
-54.07
-29.35
-4.94
16.20
32.64
44.48
52.74
58.60
62.74
65.34
66.25
65.48
63.42
60.77
58.33
56.67
55.87
55.59
55.21
54.21
52.39
49.92
47.27
44.90
43.04
41.55
40.01
37.88
34.70
30.33
24.92
18.94
12.98
7.62
3.17
-0.36
-3.29
-6.17
-9.49
-13.52
-18.15
-22.91
-27.22
-30.64
-33.11
-34.94
-36.79
-39.32
-43.17
-48.81
-56.45
-65.79
-75.67
-84.00
-87.93
-84.80
-73.08
-53.37
-28.38
-2.12
21.42
39.62
51.74
58.62
61.84
62.76
62.09
59.96
56.37
51.53
46.00
40.47
35.47
31.13
27.25
23.47
19.47
15.17
10.63
5.92
0.96
-4.52
-10.86
-18.21
-26.39
-34.78
-42.59
-49.17
-54.28
-58.21
-61.64
-65.23
-69.37
-73.93
-78.35
-81.83
-83.79
-84.08
-83.19
-82.07
-82.02
-84.11
-88.76
-95.18
-101.29
-104.15
-100.85
-89.65
-70.78
-46.49
-20.27
4.33
24.85
40.38
51.37
58.87
63.78
66.49
66.98
65.28
61.82
57.53
53.60
50.96
49.94
50.12
50.55
50.25
48.62
45.73
42.17
38.69
35.78
33.36
30.83
27.36
22.29
15.43
7.22
-1.45
-9.56
-16.33
-21.47
-25.22
-28.28
-31.54
-35.84
-41.89
-50.02
-60.03
-70.92
-80.80
-87.07
-87.14
-79.36
-63.78
-42.36
-18.37
4.67
24.18
39.02
49.46
56.46
60.96
63.45
64.03
62.73
59.91
56.26
52.66
49.79
47.92
46.87
46.16
45.31
44.04
42.35
40.36
38.14
35.62
32.58
28.85
24.39
19.35
13.96
8.36
2.49
-3.72
-10.31
-17.08
-23.66
-29.64
-34.72
-38.87
-42.36
-45.63
-49.32
-54.21
-60.98
-69.89
-80.29
-90.30
-97.08
-97.55
-89.66
-73.32
-50.67
-25.34
-1.22
18.83
33.72
43.87
50.52
54.81
57.36
58.24
57.42
55.17
52.21
49.45
47.61
46.90
46.93
46.95
46.30
44.70
42.44
40.11
38.22
36.90
35.74
33.96
30.86
26.14
20.04
13.31
6.89
1.50
-2.62
-5.78
-8.64
-11.97
-16.21
-21.36
-26.93
-32.22
-36.59
-39.79
-42.06
-44.06
-46.70
-50.93
-57.46
-66.50
-77.47
-88.75
-97.81
-101.65
-97.85
-85.46
-65.57
-41.08
-15.77
6.89
24.80
37.56
45.97
51.35
54.71
56.46
56.56
54.93
51.85
48.01
44.35
41.67
40.33
40.13
40.42
40.44
39.67
37.96
35.55
32.76
29.81
26.67
23.12
18.88
13.81
7.99
1.66
-4.85
-11.19
-17.10
-22.42
-27.06
-31.03
-34.44
-37.57
-40.87
-44.95
-50.45
-57.85
-67.07
-77.17
-86.23
-91.66
-91.02
-82.86
-67.45
-46.76
-23.90
-2.02
16.61
31.04
41.50
48.78
53.69
56.69
58.01
57.83
56.58
54.86
53.31
52.28
51.73
51.38
50.79
49.75
48.32
46.73
45.23
43.80
42.14
39.70
36.01
30.95
24.88
18.52
12.62
7.65
3.52
-0.30
-4.59
-9.92
-16.33
-23.30
-29.91
-35.33
-39.16
-41.69
-43.78
-46.68
-51.55
-59.15
-69.36
-80.96
-91.58
-98.18
-97.86
-88.90
-71.50
-47.86
-21.53
3.78
25.28
41.69
53.20
60.78
65.50
68.03
68.65
67.48
64.76
61.04
57.10
53.62
51.05
49.42
48.41
47.57
46.56
45.30
43.97
42.78
41.82
40.87
39.52
37.36
34.23
30.30
25.99
21.76
17.88
14.31
10.77
7.01
2.96
-1.19
-5.02
-8.17
-10.52
-12.26
-13.77
-15.47
-17.59
-20.17
-23.12
-26.33
-29.86
-33.87
-38.73
-44.85
-52.63
-62.06
-72.38
-81.81
-87.68
-87.15
-78.28
-61.02
-37.44
-11.18
13.80
34.53
49.72
59.67
65.52
68.41
68.97
67.39
63.77
58.58
52.67
47.04
42.43
39.15
36.95
35.31
33.67
31.66
29.17
26.19
22.73
18.74
14.10
8.79
2.92
-3.29
-9.69
-16.24
-23.03
-30.10
-37.30
-44.17
-50.10
-54.52
-57.22
-58.41
-58.71
-58.92
-59.83
-62.07
-66.04
-71.65
-78.09
-83.74
-86.36
-83.71
-74.40
-58.54
-37.83
-15.07
6.79
25.56
40.24
50.95
58.34
63.02
65.31
65.31
63.25
59.75
55.84
52.64
50.94
50.75
51.32
51.36
49.62
45.42
39.00
31.31
23.59
16.75
10.92
5.53
-0.34
-7.43
-15.92
-25.36
-35.04
-44.28
-52.79
-60.61
-67.98
-75.10
-82.13
-89.19
-96.48
-104.08
-111.63
-117.89
-120.87
-118.30
-108.59
-91.71
-69.41
-44.78
-21.18
-1.10
14.38
25.60
33.62
39.48
43.77
46.51
47.55
46.88
44.88
42.27
39.84
38.26
37.73
38.00
38.49
38.54
37.75
36.05
33.69
31.07
28.44
25.88
23.15
19.96
16.11
11.58
6.66
1.78
-2.64
-6.38
-9.50
-12.29
-15.14
-18.42
-22.43
-27.50
-33.99
-42.23
-52.17
-62.94
-72.59
-78.42
-77.83
-69.42
-53.67
-32.98
-10.85
9.35
25.38
36.64
43.88
48.39
51.28
53.05
53.65
52.85
50.58
47.19
43.35
39.82
37.11
35.35
34.27
33.38
32.26
30.72
28.86
26.98
25.28
23.86
22.48
20.75
18.18
14.44
9.45
3.46
-2.95
-9.09
-14.38
-18.52
-21.62
-24.14
-26.71
-30.03
-34.72
-41.26
-49.84
-60.00
-70.37
-78.67
-82.16
-78.59
-67.14
-48.95
-26.89
-4.54
15.00
30.02
40.35
46.84
50.58
52.26
52.07
50.04
46.40
41.85
37.42
34.09
32.36
32.06
32.40
32.41
31.48
29.55
27.24
25.34
24.34
24.05
23.56
21.70
17.54
10.99
2.79
-5.70
-13.07
-18.46
-21.85
-24.00
-26.14
-29.52
-35.08
-43.24
-53.81
-65.78
-77.31
-85.89
-88.95
-84.65
-72.76
-54.87
-33.99
-13.49
4.03
17.40
26.83
33.29
37.68
40.37
41.29
40.37
37.91
34.72
31.81
29.97
29.37
29.56
29.74
29.17
27.57
25.24
22.84
21.04
20.04
19.45
18.35
15.76
11.03
4.16
-4.12
-12.65
-20.21
-26.00
-29.83
-32.25
-34.23
-36.99
-41.62
-48.79
-58.43
-69.40
-79.55
-85.98
-85.99
-77.92
-61.96
-40.21
-16.06
6.93
26.07
40.17
49.46
54.97
57.89
58.97
58.53
56.64
53.46
49.39
45.07
41.19
38.24
36.39
35.44
34.93
34.42
33.60
32.39
30.96
29.45
27.95
26.33
24.30
21.48
17.61
12.63
6.68
0.13
-6.59
-13.05
-18.90
-23.89
-27.93
-31.12
-33.78
-36.53
-40.26
-45.95
-54.31
-65.18
-77.14
-87.46
-92.70
-89.94
-77.86
-57.47
-31.86
-5.09
19.17
38.76
53.28
63.58
70.94
76.27
79.88
81.62
81.31
78.99
75.01
69.90
64.16
58.18
52.16
46.19
40.29
34.49
28.80
23.20
17.64
12.08
6.48
0.82
-4.92
-10.81
-16.97
-23.47
-30.29
-37.18
-43.70
-49.36
-53.77
-56.87
-58.91
-60.50
-62.44
-65.62
-70.90
-78.86
-89.36
-101.13
-111.66
-117.64
-116.01
-105.10
-85.48
-59.92
-32.41
-6.83
14.26
30.00
40.93
48.12
52.49
54.50
54.35
52.35
49.13
45.61
42.66
40.78
39.97
39.72
39.26
37.89
35.23
31.41
26.91
22.39
18.36
14.95
11.88
8.53
4.24
-1.35
-8.19
-15.71
-23.10
-29.61
-34.81
-38.78
-42.02
-45.24
-49.05
-53.62
-58.48
-62.59
-64.57
-63.32
-58.56
-51.18
-43.22
-37.26
-35.58
-39.28
-47.79
-58.62
-67.76
-70.43
-62.20
-40.34
-4.91
40.77
90.70
137.84
176.25
202.80
217.91
224.71
227.32
228.91
230.63
231.68
230.31
225.22
216.28
204.58
191.69
178.64
165.45
151.19
134.67
115.23
93.20
69.76
46.51
24.82
5.46
-11.40
-26.04
-38.88
-50.39
-60.86
-70.48
-79.22
-86.93
-93.42
-98.65
-102.84
-106.39
-109.72
-113.28
-117.52
-123.17
-131.06
-141.74
-154.64
-167.57
-176.88
-178.46
-169.36
-149.14
-120.19
-86.99
-54.41
-26.13
-3.86
12.55
24.26
32.48
38.00
41.14
42.13
41.37
39.55
37.43
35.60
34.27
33.32
32.46
31.49
30.36
29.16
27.91
26.38
24.20
20.95
16.41
10.73
4.34
-2.24
-8.68
-14.98
-21.42
-28.36
-35.98
-44.15
-52.38
-60.02
-66.47
-71.49
-75.29
-78.54
-82.31
-87.74
-95.61
-105.81
-116.89
-126.05
-129.77
-124.95
-110.17
-86.40
-56.83
-25.76
2.82
26.35
44.13
56.73
65.25
70.61
73.31
73.65
72.08
69.34
66.29
63.68
61.81
60.50
59.32
57.78
55.74
53.37
51.06
49.14
47.61
46.02
43.60
39.68
34.00
26.86
19.08
11.50
4.66
-1.41
-7.16
-13.11
-19.54
-26.25
-32.72
-38.35
-42.81
-46.25
-49.34
-53.01
-58.36
-66.29
-77.07
-89.94
-102.79
-112.43
-115.28
-108.76
-92.30
-67.79
-39.06
-10.43
14.59
34.28
48.62
58.61
65.38
69.62
71.59
71.43
69.53
66.58
63.43
60.69
58.61
57.08
55.81
54.51
53.04
51.36
49.39
47.02
44.08
40.43
36.02
30.96
25.37
19.34
12.82
5.69
-2.09
-10.37
-18.78
-26.77
-33.82
-39.59
-44.05
-47.57
-50.84
-54.82
-60.51
-68.74
-79.65
-92.31
-104.42
-112.67
-113.62
-104.86
-86.18
-59.76
-29.59
-0.13
25.11
44.41
57.83
66.47
71.64
74.24
74.72
73.36
70.66
67.41
64.54
62.74
62.26
62.83
63.82
64.61
64.86
64.58
64.05
63.50
62.83
61.69
59.48
55.83
50.76
44.72
38.35
32.21
26.44
20.78
14.84
8.40
1.63
-4.95
-10.67
-15.16
-18.56
-21.57
-25.12
-29.97
-36.33
-43.76
-51.35
-58.09
-63.34
-67.08
-69.94
-73.04
-77.71
-85.14
-95.93
-109.57
-124.02
-135.83
-140.82
-135.42
-118.10
-90.12
-55.33
-18.89
14.39
41.40
61.13
74.22
82.06
85.97
86.88
85.47
82.41
78.53
74.77
71.87
70.18
69.58
69.51
69.31
68.49
67.00
65.22
63.73
62.94
62.75
62.52
61.32
58.35
53.25
46.23
37.91
29.03
20.14
11.61
3.58
-3.83
-10.48
-16.33
-21.47
-26.19
-30.88
-35.83
-41.11
-46.46
-51.45
-55.74
-59.25
-62.24
-65.28
-69.05
-74.23
-81.30
-90.21
-100.04
-108.76
-113.43
-111.06
-99.74
-79.63
-53.15
-24.30
2.82
25.25
41.88
53.19
60.44
64.75
66.66
66.22
63.42
58.58
52.48
46.18
40.66
36.58
34.13
33.07
32.94
33.24
33.61
33.86
33.86
33.46
32.46
30.57
27.62
23.64
18.85
13.53
7.93
2.17
-3.63
-9.34
-14.64
-19.16
-22.56
-24.68
-25.66
-25.81
-25.55
-25.24
-25.04
-24.79
-23.90
-21.20
-14.99
-3.38
15.16
41.13
73.73
110.84
149.63
187.19
221.07
249.56
271.57
286.52
293.96
293.77
286.46
273.76
258.80
245.56
237.42
235.63
238.27
240.76
237.72
225.30
202.95
173.43
141.23
110.32
82.47
57.02
31.95
5.46
-23.21
-53.61
-84.89
-116.19
-146.92
-176.40
-203.64
-227.41
-246.65
-261.03
-271.17
-278.23
-283.29
-286.64
-287.62
-284.99
-277.70
-265.63
-249.93
-232.64
-215.79
-200.48
-186.19
-170.94
-152.26
-128.45
-99.69
-68.23
-37.67
-11.68
7.31
18.74
23.66
23.94
21.41
17.33
12.33
6.70
0.66
-5.62
-12.08
-19.09
-27.47
-38.37
-52.96
-71.91
-94.95
-120.77
-147.04
-171.08
-190.50
-203.98
-211.55
-214.59
-215.17
-215.12
-215.37
-215.58
-214.29
-209.71
-200.43
-185.90
-166.57
-143.73
-119.49
-96.48
-77.30
-63.52
-54.58
-47.16
-35.70
-14.35
20.51
68.24
123.59
178.34
224.25
255.73
271.23
272.63
263.51
247.26
226.04
200.79
172.04
140.69
108.50
77.74
50.62
28.46
11.35
-1.64
-11.90
-20.58
-28.19
-34.56
-39.41
-42.81
-45.52
-48.66
-53.17
-59.17
-65.72
-71.19
-74.00
-73.48
-70.21
-65.95
-63.01
-63.52
-68.92
-79.46
-93.82
-109.01
-120.46
-122.82
-111.33
-83.69
-41.23
10.80
64.63
112.34
148.26
170.29
179.77
179.96
174.24
164.99
153.50
140.59
127.45
115.83
107.49
103.39
103.01
104.45
105.23
103.55
99.11
93.40
88.93
87.88
90.74
95.74
99.30
97.39
87.28
68.53
43.31
15.54
-10.47
-31.14
-44.52
-50.38
-50.13
-46.35
-42.43
-41.69
-46.37
-56.58
-69.85
-81.69
-87.21
-82.97
-68.44
-46.18
-20.69
3.29
22.41
35.38
42.59
45.23
44.33
40.54
34.38
26.63
18.61
11.91
7.75
6.44
7.28
8.79
9.49
8.54
6.09
3.19
1.15
0.80
1.90
3.19
2.84
-0.63
-7.60
-16.97
-26.61
-34.14
-38.00
-38.13
-36.03
-34.09
-34.87
-40.14
-50.38
-64.42
-79.36
-91.05
-94.94
-87.52
-67.69
-37.46
-1.63
33.72
63.11
83.23
93.37
94.81
89.60
79.53
65.83
49.42
31.42
13.39
-2.97
-16.27
-26.03
-32.62
-37.04
-40.29
-42.80
-44.45
-44.73
-43.44
-41.07
-38.84
-38.30
-40.58
-45.86
-53.15
-60.77
-66.99
-70.82
-72.34
-72.65
-73.39
-76.21
-82.18
-91.21
-101.67
-110.39
-113.29
-106.61
-88.37
-59.40
-23.38
14.30
48.31
75.09
93.53
104.51
109.83
110.97
108.73
103.46
95.74
86.80
78.37
72.10
68.83
68.23
69.01
69.49
68.40
65.31
60.80
55.87
51.39
47.56
43.63
38.29
30.25
18.95
4.95
-10.23
-24.53
-36.27
-44.65
-50.08
-53.94
-58.08
-64.28
-73.68
-86.34
-100.86
-114.34
-122.79
-122.22
-110.04
-86.25
-53.74
-17.49
17.04
45.65
66.38
79.51
86.60
89.33
88.81
85.46
79.61
71.96
63.87
56.91
52.32
50.40
50.32
50.60
49.76
47.14
43.19
39.15
36.31
35.18
35.11
34.52
31.60
25.16
15.25
3.05
-9.49
-20.57
-29.02
-34.74
-38.45
-41.40
-44.99
-50.43
-58.52
-69.26
-81.39
-92.18
-97.80
-94.35
-79.47
-53.43
-19.46
17.25
51.45
79.45
100.01
113.90
122.74
127.83
129.62
128.13
123.66
117.41
111.28
107.20
106.28
108.31
111.90
115.12
116.33
114.76
110.51
104.17
96.18
86.39
74.09
58.33
38.59
15.18
-10.59
-36.75
-61.35
-83.01
-101.39
-117.28
-132.22
-148.06
-166.39
-187.90
-211.86
-235.80
-255.65
-266.37
-263.28
-243.46
-207.03
-157.59
-101.41
-45.88
2.48
39.49
63.90
76.77
80.49
77.62
70.40
60.66
50.14
40.55
33.40
29.49
28.57
29.35
30.03
29.27
26.71
23.11
19.80
17.86
17.37
17.30
15.90
11.61
3.84
-6.74
-18.47
-29.44
-38.34
-44.79
-49.54
-54.00
-59.83
-68.42
-80.35
-94.82
-109.32
-119.77
-121.54
-111.07
-87.48
-53.34
-14.04
23.98
55.44
77.73
91.08
97.53
99.39
98.11
94.08
87.33
78.22
67.97
58.34
50.98
46.65
44.94
44.44
43.49
40.92
36.53
31.09
25.78
21.45
18.09
14.73
9.81
1.93
-9.46
-23.70
-39.08
-53.40
-64.87
-72.61
-76.98
-79.25
-81.18
-84.49
-90.60
-100.29
-113.28
-127.85
-140.61
-147.02
-142.68
-125.03
-94.64
-55.44
-13.46
25.17
56.18
77.93
91.10
97.33
98.12
94.36
86.57
75.65
63.24
51.46
42.25
36.57
34.06
33.29
32.41
30.08
25.88
20.44
14.95
10.50
7.54
5.61
3.54
-0.04
-6.15
-14.86
-25.26
-35.70
-44.41
-50.15
-52.75
-53.09
-52.88
-54.08
-58.44
-66.98
-79.63
-94.87
-109.78
-120.44
-122.91
-114.53
-94.88
-66.07
-32.09
2.49
33.82
59.54
78.85
91.94
99.41
101.83
99.85
94.40
86.95
79.33
73.39
70.46
70.97
74.36
79.37
84.61
89.11
92.73
95.97
99.68
104.35
109.64
114.15
115.80
112.54
103.25
88.54
70.80
53.52
40.10
32.41
30.03
30.37
29.67
24.33
11.90
-8.28
-35.05
-65.42
-94.77
-117.41
-127.79
-122.19
-100.23
-65.40
-24.18
16.13
49.73
73.78
88.47
95.85
98.33
97.55
94.31
89.01
82.25
75.03
68.56
63.75
60.96
59.93
59.93
60.18
60.03
59.10
57.27
54.52
50.86
46.31
40.89
34.64
27.54
19.55
10.52
0.44
-10.35
-21.19
-31.13
-39.36
-45.54
-50.04
-53.81
-58.08
-64.04
-72.66
-84.57
-99.75
-116.95
-133.28
-144.28
-145.01
-131.89
-104.35
-65.54
-21.47
21.00
56.40
81.91
97.45
104.52
104.93
100.13
91.23
79.45
66.50
54.34
44.64
38.23
34.92
33.74
33.52
33.35
32.80
31.77
30.11
27.40
22.90
15.84
5.73
-7.30
-22.52
-38.74
-54.60
-68.80
-80.27
-88.28
-92.48
-93.02
-90.44
-85.64
-79.67
-73.56
-68.21
-64.48
-63.40
-66.23
-74.06
-86.95
-102.97
-117.89
-125.94
-121.72
-102.43
-69.33
-27.50
16.00
54.65
84.57
104.97
117.26
123.37
124.53
121.08
113.20
101.79
88.74
76.49
67.05
61.31
58.70
57.71
56.68
54.44
50.70
45.94
40.89
36.17
31.92
27.80
23.12
17.14
9.36
-0.25
-11.12
-22.28
-32.57
-41.08
-47.41
-51.81
-55.02
-58.03
-61.81
-67.22
-74.78
-84.43
-95.10
-104.46
-109.14
-105.64
-91.64
-67.18
-34.98
0.33
33.71
61.31
81.15
93.00
97.52
95.57
87.96
75.89
61.26
46.70
34.86
27.49
24.70
25.12
26.56
27.04
25.64
22.60
18.85
15.23
11.90
8.27
3.40
-3.42
-12.08
-21.61
-30.55
-37.51
-41.78
-43.69
-44.61
-46.52
-51.52
-61.06
-75.24
-92.33
-108.78
-119.98
-121.65
-111.36
-89.64
-59.90
-27.31
3.00
27.33
44.15
53.56
56.38
53.33
44.92
31.83
15.55
-1.53
-16.62
-27.50
-33.27
-34.53
-32.90
-30.18
-27.54
-25.26
-22.92
-20.06
-16.64
-13.28
-10.93
-10.29
-11.41
-13.48
-15.07
-14.75
-11.57
-5.57
2.09
9.37
13.76
12.81
4.88
-10.04
-29.83
-50.20
-65.58
-70.84
-63.17
-43.21
-15.01
15.43
42.32
61.76
72.62
76.02
74.22
69.50
63.60
57.70
52.66
49.14
47.46
47.41
48.23
48.86
48.47
46.67
43.78
40.56
37.81
35.98
34.77
33.25
30.20
24.64
16.38
6.13
-4.72
-14.67
-22.66
-28.40
-32.44
-35.93
-40.32
-46.90
-56.19
-67.40
-78.18
-84.89
-83.70
-72.06
-49.94
-20.16
12.52
43.02
67.71
85.14
95.81
101.22
102.71
101.03
96.51
89.60
81.22
72.67
65.14
59.13
54.35
49.94
45.04
39.39
33.44
28.09
24.06
21.42
19.36
16.50
11.44
3.48
-7.08
-19.07
-30.87
-41.08
-48.98
-54.74
-59.27
-63.96
-70.12
-78.38
-88.05
-96.74
-100.69
-95.80
-79.13
-50.35
-12.26
29.99
70.39
103.94
127.75
141.03
144.37
138.83
125.48
105.71
81.63
56.26
33.07
14.96
3.39
-2.07
-3.34
-2.87
-2.61
-3.29
-4.46
-5.11
-4.60
-3.29
-2.56
-4.25
-9.67
-18.91
-30.60
-42.56
-52.65
-59.73
-63.97
-66.60
-69.24
-73.27
-79.39
-87.39
-95.87
-102.22
-102.83
-94.11
-73.80
-42.33
-3.24
37.77
74.69
103.28
122.11
132.44
136.78
137.52
135.97
132.27
126.03
116.98
105.41
92.09
78.09
64.24
50.89
37.70
23.90
8.73
-7.91
-25.23
-41.71
-55.75
-66.56
-74.59
-81.37
-88.74
-97.99
-109.13
-121.02
-131.93
-140.30
-145.44
-147.84
-148.86
-150.34
-154.05
-161.26
-172.27
-186.00
-199.66
-209.01
-209.01
-195.10
-164.77
-118.74
-61.26
0.73
59.41
108.19
143.24
164.09
173.02
173.77
170.07
164.73
159.27
154.24
149.63
145.24
140.86
136.19
130.84
124.44
116.79
108.00
98.37
88.15
77.36
65.70
52.71
38.15
22.25
5.71
-10.53
-25.66
-39.37
-51.90
-63.85
-75.78
-87.88
-99.80
-110.78
-120.13
-127.50
-133.25
-138.40
-144.48
-153.20
-165.81
-182.39
-201.05
-217.73
-226.67
-222.05
-200.04
-160.71
-108.64
-51.72
1.21
43.24
71.15
85.57
89.58
86.71
79.48
69.17
56.46
42.53
29.59
20.42
17.41
21.31
30.70
42.44
52.79
58.90
59.78
56.47
51.22
46.29
42.78
40.14
36.72
30.76
21.57
10.03
-1.74
-11.46
-17.76
-20.74
-21.83
-22.89
-25.53
-30.71
-38.89
-50.01
-63.21
-76.18
-84.94
-84.55
-70.89
-42.77
-3.04
41.92
84.40
118.10
140.06
150.88
153.30
150.26
143.65
134.07
121.67
107.07
91.68
77.31
65.45
56.60
50.15
44.74
38.90
31.56
22.37
11.62
0.05
-11.49
-22.27
-31.78
-39.80
-46.42
-52.00
-56.95
-61.64
-66.18
-70.34
-73.65
-75.62
-76.04
-75.19
-73.74
-72.73
-73.31
-76.67
-83.72
-94.56
-107.81
-120.04
-126.27
-121.22
-101.49
-67.35
-23.18
23.80
65.98
97.93
117.65
126.22
126.34
120.60
110.74
97.82
83.02
68.14
55.40
46.62
42.46
42.15
43.82
45.42
45.59
43.94
40.97
37.36
33.47
29.02
23.48
16.41
8.03
-0.87
-9.17
-16.08
-21.61
-26.48
-31.88
-38.71
-47.17
-56.58
-65.76
-73.54
-79.41
-83.55
-86.94
-90.94
-96.98
-106.17
-118.61
-132.76
-145.02
-150.27
-143.24
-120.77
-83.54
-36.50
12.49
55.36
86.50
104.19
110.20
108.06
101.07
91.22
79.36
66.07
52.59
40.86
32.94
30.06
32.04
37.32
43.69
49.13
52.40
53.23
51.94
48.96
44.59
38.94
32.07
24.22
15.79
7.20
-1.32
-9.79
-18.33
-26.98
-35.46
-43.17
-49.37
-53.66
-56.13
-57.53
-59.17
-62.67
-69.60
-80.87
-95.91
-112.02
-124.46
-127.53
-116.54
-89.93
-50.31
-4.00
41.16
78.47
104.37
118.83
124.22
123.43
118.49
110.25
99.11
85.90
72.41
60.92
53.34
50.40
51.24
53.87
56.04
56.22
54.10
50.54
46.83
43.99
42.06
40.09
36.57
30.21
20.56
8.37
-4.62
-16.41
-25.38
-31.05
-34.19
-36.48
-39.80
-45.41
-53.39
-62.60
-71.23
-77.55
-80.75
-81.29
-80.69
-81.03
-84.40
-92.31
-105.18
-121.85
-139.16
-152.15
-154.95
-142.65
-113.35
-69.43
-17.31
34.53
78.27
109.17
126.33
131.96
129.50
121.98
111.28
98.48
84.65
71.38
60.59
53.84
51.60
52.94
55.88
58.29
58.73
56.92
53.62
50.01
46.89
44.19
40.90
35.62
27.24
15.74
2.32
-10.96
-22.03
-29.77
-34.48
-37.67
-41.41
-47.26
-55.48
-64.90
-73.51
-79.31
-81.39
-80.26
-77.75
-76.35
-78.48
-85.81
-98.79
-116.19
-134.80
-149.64
-154.86
-145.51
-119.55
-79.04
-29.97
19.64
62.39
93.80
113.07
122.24
124.36
121.89
116.11
107.59
97.12
86.26
77.11
71.44
69.90
71.60
74.56
76.68
76.65
74.47
71.20
68.22
66.30
65.08
63.13
58.70
50.58
38.86
24.94
11.08
-0.57
-8.92
-14.30
-18.31
-23.05
-30.10
-39.83
-51.23
-62.44
-71.54
-77.50
-80.48
-81.85
-83.56
-87.70
-95.87
-108.73
-125.45
-143.29
-157.48
-162.26
-152.53
-126.07
-84.98
-35.45
14.12
56.01
85.61
102.30
108.53
107.87
103.16
95.76
86.07
74.48
62.19
51.17
43.41
40.00
40.59
43.52
46.55
47.83
46.51
42.95
38.31
33.84
30.26
27.36
24.07
19.00
10.99
-0.23
-13.83
-28.07
-40.87
-50.57
-56.48
-59.10
-59.93
-60.87
-63.70
-69.75
-79.46
-92.20
-105.79
-116.62
-120.09
-112.08
-90.56
-56.96
-16.05
25.42
61.10
87.05
102.60
109.59
110.73
108.11
102.54
94.05
82.91
70.31
58.37
49.32
44.47
43.63
45.11
46.62
46.22
43.10
37.73
31.43
25.45
20.32
15.58
9.91
1.85
-9.46
-23.83
-39.94
-55.76
-69.32
-79.35
-85.69
-89.29
-91.77
-94.88
-100.09
-108.33
-119.67
-132.93
-145.37
-152.77
-150.50
-135.05
-105.81
-65.83
-21.17
21.15
55.49
79.30
93.15
99.60
101.45
100.48
97.28
91.90
84.72
76.86
69.92
65.26
63.31
63.33
63.75
62.85
59.56
53.86
46.80
39.94
34.59
31.14
28.84
26.00
20.75
11.89
-0.48
-14.95
-29.30
-41.38
-49.96
-55.07
-57.88
-60.11
-63.46
-69.28
-78.42
-91.14
-106.69
-122.86
-135.89
-141.04
-134.15
-113.39
-80.34
-39.90
1.39
37.44
64.57
82.04
91.43
95.25
95.60
93.64
89.83
84.44
78.15
72.04
67.30
64.71
64.34
65.46
66.81
67.06
65.33
61.42
55.81
49.47
43.33
37.95
33.25
28.57
22.99
15.73
6.49
-4.40
-16.15
-27.94
-39.12
-49.48
-59.02
-67.86
-76.11
-84.08
-92.51
-102.42
-114.47
-127.97
-140.25
-146.99
-143.66
-127.57
-99.36
-63.24
-25.48
7.83
32.93
49.15
58.27
62.91
65.03
65.27
63.39
59.16
53.18
46.96
42.34
40.68
42.13
45.56
49.12
51.02
50.36
47.34
43.06
38.83
35.51
33.05
30.53
26.60
20.13
10.71
-1.05
-13.73
-25.66
-35.45
-42.49
-47.11
-50.35
-53.58
-58.16
-65.14
-75.05
-87.57
-101.20
-113.07
-119.36
-116.37
-101.89
-76.36
-43.04
-7.08
26.23
53.07
71.96
83.52
89.45
91.43
90.52
87.27
82.18
76.11
70.27
65.82
63.40
62.84
63.24
63.50
62.85
61.13
58.74
56.27
53.95
51.44
47.88
42.37
34.57
24.94
14.80
5.78
-0.93
-5.04
-7.45
-9.75
-13.60
-19.94
-28.55
-38.21
-47.28
-54.45
-59.31
-62.54
-65.63
-70.42
-78.61
-91.16
-107.71
-126.07
-142.19
-150.95
-147.57
-129.54
-97.83
-56.90
-13.34
26.38
57.88
79.70
92.95
99.88
102.62
102.44
99.92
95.47
89.87
84.30
79.99
77.73
77.50
78.47
79.44
79.34
77.76
75.05
72.04
69.56
67.90
66.57
64.45
60.35
53.54
44.14
33.15
22.11
12.51
5.29
0.53
-2.60
-5.36
-9.05
-14.36
-21.23
-28.86
-36.09
-41.97
-46.10
-48.86
-51.21
-54.42
-59.78
-68.30
-80.55
-96.08
-113.05
-127.94
-136.14
-133.27
-116.88
-87.71
-49.84
-9.32
27.77
57.24
77.61
89.67
95.36
96.50
94.22
89.15
81.89
73.42
65.03
58.01
53.13
50.51
49.61
49.63
49.81
49.62
48.85
47.39
45.12
41.80
37.22
31.25
24.10
16.17
8.01
-0.00
-7.71
-15.19
-22.58
-29.90
-36.94
-43.36
-48.75
-52.99
-56.26
-59.16
-62.66
-67.92
-76.03
-87.43
-101.21
-114.72
-123.85
-124.16
-112.55
-88.67
-55.42
-18.12
17.36
46.46
67.06
79.44
85.34
86.71
84.96
80.88
74.97
67.97
60.91
54.87
50.63
48.37
47.70
47.85
48.13
48.15
47.93
47.58
47.10
46.09
43.82
39.57
33.03
24.56
15.18
6.10
-1.81
-8.36
-14.13
-20.01
-26.70
-34.29
-42.16
-49.28
-54.77
-58.31
-60.40
-62.18
-65.22
-71.04
-80.63
-93.82
-108.73
-121.72
-128.10
-123.55
-105.92
-76.27
-38.90
0.03
34.59
60.87
77.77
86.52
89.41
88.53
85.14
79.80
72.89
65.04
57.27
50.64
45.92
43.32
42.49
42.73
43.25
43.48
43.05
41.83
39.73
36.65
32.54
27.43
21.51
15.11
8.44
1.58
-5.63
-13.42
-21.81
-30.45
-38.65
-45.61
-50.76
-54.01
-55.87
-57.30
-59.57
-64.03
-71.71
-82.81
-96.03
-108.30
-115.28
-112.63
-97.74
-71.08
-36.36
0.65
34.13
60.07
77.18
86.48
90.11
89.98
87.20
82.16
75.11
66.74
58.18
50.78
45.48
42.61
41.71
41.82
41.87
41.05
39.01
35.85
31.94
27.68
23.35
18.92
14.12
8.50
1.65
-6.65
-16.21
-26.42
-36.38
-45.15
-52.06
-56.92
-60.06
-62.29
-64.68
-68.44
-74.69
-83.99
-95.83
-108.04
-116.98
-118.33
-108.63
-86.91
-55.38
-18.94
16.45
45.83
66.57
78.69
83.89
84.29
81.37
75.84
68.03
58.56
48.66
39.97
33.94
31.22
31.38
33.15
34.85
35.14
33.48
30.11
25.89
21.69
18.00
14.67
11.02
6.16
-0.54
-9.20
-19.23
-29.51
-38.78
-46.07
-51.01
-53.94
-55.76
-57.57
-60.49
-65.41
-72.91
-82.92
-94.31
-104.54
-109.94
-106.69
-92.29
-66.90
-33.67
2.11
34.90
60.62
77.73
86.97
90.26
89.47
85.71
79.47
71.12
61.49
51.87
43.72
38.15
35.50
35.33
36.57
37.99
38.58
37.78
35.54
32.15
28.08
23.64
18.92
13.79
7.93
1.01
-7.12
-16.33
-26.09
-35.61
-44.02
-50.67
-55.31
-58.25
-60.23
-62.27
-65.55
-71.16
-79.82
-91.38
-104.22
-115.06
-119.59
-113.73
-95.41
-65.67
-28.72
9.43
43.05
68.38
84.45
92.46
94.48
92.42
87.39
80.10
71.36
62.44
54.85
49.77
47.52
47.46
48.21
48.39
47.22
44.84
42.02
39.66
38.16
37.05
35.21
31.37
24.85
15.92
5.83
-3.74
-11.41
-16.69
-20.20
-23.30
-27.45
-33.44
-41.01
-48.95
-55.74
-60.20
-62.00
-61.92
-61.40
-62.21
-66.00
-73.92
-86.12
-101.10
-115.42
-124.02
-121.68
-105.00
-74.16
-33.42
10.21
49.39
79.01
97.45
106.17
108.02
105.58
100.15
92.10
81.76
70.18
59.17
50.57
45.48
43.66
43.74
43.94
42.89
40.30
36.82
33.54
31.21
29.66
27.77
24.08
17.51
8.07
-3.09
-14.13
-23.31
-29.79
-33.94
-37.12
-40.93
-46.46
-53.73
-61.67
-68.66
-73.25
-74.83
-73.88
-71.79
-70.42
-71.62
-76.79
-86.38
-99.35
-112.83
-122.31
-122.78
-110.48
-84.63
-48.18
-7.07
31.88
63.25
84.60
96.45
101.08
100.87
97.21
90.53
80.99
69.37
57.35
47.03
40.17
37.41
37.97
40.11
41.83
41.72
39.42
35.51
31.12
27.18
23.93
20.81
16.74
10.63
1.94
-8.98
-20.97
-32.43
-41.95
-48.74
-52.93
-55.42
-57.51
-60.55
-65.68
-73.63
-84.46
-97.06
-108.88
-116.04
-114.34
-100.74
-74.92
-39.76
-0.69
36.17
66.01
86.59
98.30
103.14
103.33
100.41
95.07
87.63
78.61
69.00
60.10
53.11
48.70
46.80
46.75
47.53
48.18
47.99
46.61
43.95
40.05
34.96
28.75
21.57
13.69
5.39
-3.16
-12.08
-21.80
-32.85
-45.51
-59.55
-74.11
-87.92
-99.71
-108.82
-115.48
-120.87
-126.70
-134.25
-143.34
-151.58
-154.67
-147.68
-127.18
-93.08
-49.23
-2.41
40.08
72.91
94.14
105.07
108.64
107.61
103.45
96.47
86.78
75.24
63.71
54.44
49.11
47.93
49.55
51.69
52.11
49.60
44.34
37.61
31.06
25.85
22.08
18.80
14.44
7.63
-2.20
-14.44
-27.52
-39.48
-48.75
-54.67
-57.74
-59.25
-60.85
-63.98
-69.62
-78.23
-89.52
-102.20
-113.61
-119.97
-117.31
-102.86
-76.58
-41.55
-3.20
32.54
61.17
80.76
91.81
96.06
95.29
90.62
82.68
72.27
60.84
50.32
42.50
38.24
37.15
37.76
38.23
37.19
34.27
30.06
25.70
22.03
19.10
15.99
11.19
3.40
-7.76
-21.44
-35.82
-48.73
-58.54
-64.71
-67.97
-69.97
-72.67
-77.82
-86.35
-97.95
-110.67
-121.08
-124.86
-118.22
-99.32
-69.27
-32.13
6.37
40.74
67.32
85.06
94.99
99.07
98.98
95.59
89.26
80.47
70.38
60.78
53.54
49.87
49.82
52.27
55.42
57.57
57.75
55.90
52.63
48.63
44.11
38.57
31.04
20.64
7.16
-8.56
-24.80
-39.48
-50.93
-58.46
-62.54
-64.57
-66.34
-69.60
-75.67
-85.31
-98.39
-113.43
-127.34
-135.73
-134.02
-119.12
-91.07
-53.38
-12.22
25.79
55.70
75.66
86.68
91.40
92.40
91.21
88.25
83.46
77.13
70.21
64.02
59.67
57.56
57.15
57.24
56.50
54.07
49.79
44.25
38.38
33.05
28.60
24.65
20.21
14.16
5.68
-5.22
-17.61
-29.96
-40.62
-48.53
-53.54
-56.44
-58.66
-61.73
-67.00
-75.43
-87.28
-101.79
-116.78
-128.58
-132.75
-125.48
-105.11
-73.19
-34.20
5.79
41.21
68.51
86.79
97.20
101.67
101.89
98.89
93.30
85.84
77.62
69.94
63.89
59.96
57.90
56.98
56.41
55.72
54.81
53.75
52.43
50.39
46.91
41.39
33.73
24.56
14.96
6.01
-1.78
-8.59
-15.28
-22.72
-31.36
-40.81
-50.01
-57.61
-62.58
-64.70
-64.71
-64.13
-64.96
-69.26
-78.48
-92.77
-110.29
-127.03
-137.57
-136.63
-121.15
-91.70
-52.62
-10.59
27.64
57.50
77.57
89.08
94.54
96.19
95.23
91.97
86.56
79.61
72.36
66.21
62.21
60.60
60.75
61.55
61.87
60.99
58.65
54.96
50.22
44.67
38.49
31.81
24.72
17.27
9.43
1.13
-7.64
-16.64
-25.39
-33.14
-39.29
-43.57
-46.30
-48.31
-50.83
-55.17
-62.48
-73.35
-87.34
-102.42
-114.99
-120.51
-114.95
-96.36
-66.03
-28.32
10.69
45.24
71.60
88.75
97.82
100.88
99.76
95.53
88.80
80.25
71.10
62.97
57.39
55.22
56.25
59.28
62.71
65.14
65.99
65.58
64.73
64.21
64.22
64.23
63.28
60.46
55.50
48.88
41.73
35.30
30.47
27.40
25.54
23.96
21.86
18.98
15.68
12.79
11.16
11.19
12.62
14.58
15.88
15.36
12.09
5.66
-3.67
-14.81
-25.88
-34.58
-38.75
-37.19
-30.15
-19.45
-8.00
1.15
5.75
5.01
-0.27
-8.29
-16.90
-24.32
-29.37
-31.41
-30.05
-25.05
-16.49
-5.11
7.32
18.29
25.33
26.97
23.36
16.10
7.45
-0.82
-8.30
-16.29
-27.35
-44.51
-70.21
-105.38
-148.59
-195.88
-241.21
-277.76
-299.78
-304.22
-291.81
-266.72
-235.40
-204.73
-180.15
-164.31
-156.53
-153.15
-148.61
-137.11
-114.36
-78.89
-32.66
19.45
71.01
115.88
149.69
170.71
179.69
179.07
172.01
161.39
149.52
137.91
127.48
118.73
111.83
106.58
102.47
98.82
95.12
91.13
86.90
82.52
77.90
72.59
66.02
57.73
47.79
36.88
26.05
16.19
7.63
-0.05
-7.74
-16.22
-25.72
-35.63
-44.85
-52.22
-57.15
-59.91
-61.60
-63.95
-68.84
-77.81
-91.26
-107.86
-124.13
-135.01
-135.23
-121.31
-93.17
-54.53
-11.82
28.02
59.82
81.40
93.47
98.31
98.31
94.99
89.03
80.85
71.33
61.93
54.34
49.82
48.59
49.81
51.95
53.47
53.51
52.07
49.84
47.64
45.96
44.59
42.79
39.62
34.38
26.93
17.76
7.82
-1.70
-9.76
-15.81
-19.95
-22.90
-25.81
-29.76
-35.39
-42.53
-50.31
-57.48
-62.97
-66.40
-68.23
-69.67
-72.22
-77.36
-86.19
-98.95
-114.61
-130.36
-141.81
-143.87
-132.48
-106.38
-68.03
-23.25
20.77
57.68
83.97
99.27
105.52
105.36
100.92
93.39
83.48
72.17
61.04
51.98
46.49
45.05
46.77
49.83
52.15
52.38
50.28
46.73
43.09
40.48
39.07
38.01
35.76
30.82
22.40
10.89
-2.35
-15.42
-26.63
-35.16
-41.22
-45.85
-50.41
-55.88
-62.52
-69.79
-76.69
-82.28
-86.21
-88.88
-91.32
-94.85
-100.71
-109.77
-122.28
-137.57
-153.62
-166.95
-173.08
-167.77
-148.54
-116.08
-74.43
-29.90
11.01
43.65
66.31
79.96
86.95
89.60
89.36
86.90
82.68
77.59
73.04
70.54
71.05
74.56
79.99
85.73
90.31
92.94
93.78
93.62
93.49
93.99
95.05
95.91
95.46
92.75
87.45
80.09
71.89
64.35
58.65
55.09
53.06
51.14
47.74
41.71
32.62
20.98
8.02
-4.40
-14.00
-18.35
-15.38
-4.08
14.80
38.58
63.04
83.56
96.48
100.16
95.18
83.62
67.98
50.03
30.47
9.26
-13.55
-37.06
-59.41
-78.21
-91.50
-98.53
-100.05
-97.94
-94.43
-91.29
-89.41
-88.90
-89.39
-90.43
-91.81
-93.67
-96.47
-100.87
-107.46
-116.32
-126.85
-137.65
-146.91
-153.03
-155.16
-153.57
-149.50
-144.75
-141.17
-140.21
-142.57
-147.82
-154.09
-158.12
-155.74
-143.10
-118.10
-81.36
-36.31
11.72
57.20
95.86
125.49
145.86
158.09
163.79
164.56
161.91
157.27
152.05
147.48
144.35
142.84
142.47
142.35
141.56
139.54
136.28
132.20
127.80
123.30
118.34
112.12
103.75
92.75
79.45
64.87
50.41
37.15
25.48
14.94
4.62
-6.26
-17.84
-29.51
-40.28
-49.36
-56.65
-62.98
-69.72
-78.41
-90.08
-104.85
-121.50
-137.30
-148.34
-150.37
-140.13
-116.64
-81.91
-40.60
1.37
38.61
67.72
87.81
99.95
106.11
108.17
107.50
104.99
101.49
97.88
94.98
93.28
92.72
92.88
93.27
93.81
94.87
97.11
100.90
106.01
111.46
115.97
118.57
119.00
117.79
115.80
113.55
110.79
106.54
99.51
88.77
74.13
56.26
36.31
15.44
-5.53
-26.36
-47.29
-69.00
-92.42
-118.37
-146.84
-176.11
-202.21
-219.36
-221.73
-205.82
-172.44
-127.10
-78.40
-35.11
-3.19
15.52
22.84
22.32
17.27
9.67
0.46
-9.53
-18.96
-25.94
-28.81
-26.98
-21.26
-13.52
-5.90
0.00
3.55
4.94
4.73
3.34
0.86
-2.89
-8.00
-14.24
-20.92
-27.12
-31.99
-35.08
-36.45
-36.55
-35.96
-35.04
-33.82
-32.12
-29.81
-27.26
-25.51
-26.31
-31.76
-43.62
-62.36
-86.29
-111.23
-131.24
-140.30
-134.37
-113.14
-80.28
-42.27
-6.04
23.23
43.45
55.33
61.10
62.96
62.14
58.98
53.52
46.32
38.63
32.14
28.24
27.44
29.23
32.32
35.25
37.11
37.80
37.93
38.32
39.42
40.92
41.83
40.87
37.13
30.60
22.24
13.70
6.76
2.64
1.64
3.11
5.74
8.12
9.25
8.83
7.27
5.47
4.36
4.52
5.96
8.08
9.76
9.57
5.94
-2.56
-16.62
-35.55
-56.64
-75.23
-85.85
-83.97
-67.90
-39.72
-4.79
30.19
59.35
79.32
89.58
91.67
87.92
80.36
70.44
59.08
47.20
35.79
25.88
18.26
13.37
11.28
11.78
14.48
18.87
24.23
29.66
34.13
36.65
36.55
33.72
28.77
22.80
17.06
12.45
9.07
6.21
2.59
-3.05
-11.36
-22.03
-33.82
-44.94
-53.65
-58.93
-60.87
-60.76
-60.88
-63.90
-72.03
-85.91
-103.73
-121.20
-132.46
-132.15
-117.49
-89.65
-53.49
-15.81
17.11
41.54
56.87
64.87
68.11
68.52
66.82
62.96
56.89
49.24
41.34
34.77
30.60
28.95
28.92
29.10
28.26
26.02
22.92
20.08
18.47
18.21
18.43
17.54
14.04
7.33
-1.98
-12.22
-21.36
-27.93
-31.58
-33.27
-34.79
-37.94
-43.73
-51.96
-61.32
-70.02
-76.56
-80.38
-81.98
-82.80
-84.62
-89.16
-97.63
-110.42
-126.60
-143.56
-157.10
-162.12
-154.28
-131.71
-96.13
-52.67
-8.21
30.87
60.61
80.09
90.87
95.51
96.29
94.61
91.21
86.69
81.90
77.94
75.71
75.54
76.96
78.94
80.32
80.37
79.10
77.14
75.33
74.17
73.49
72.41
69.83
64.96
57.80
49.16
40.42
32.87
27.24
23.42
20.53
17.39
13.09
7.37
0.80
-5.51
-10.47
-13.64
-15.48
-17.30
-20.67
-26.68
-35.41
-45.90
-56.49
-65.62
-72.46
-77.23
-81.04
-85.46
-92.13
-102.25
-116.24
-133.12
-150.10
-162.69
-165.65
-154.77
-128.66
-89.81
-44.09
1.18
39.70
68.00
85.87
95.32
98.95
98.75
95.67
90.20
83.08
75.65
69.51
65.95
65.29
66.79
69.02
70.51
70.40
68.70
66.12
63.61
61.70
60.29
58.51
55.22
49.44
40.88
30.13
18.49
7.54
-1.38
-7.69
-11.77
-14.79
-18.29
-23.53
-30.95
-39.95
-49.19
-57.15
-62.82
-66.21
-68.33
-70.80
-75.37
-83.43
-95.51
-110.93
-127.43
-141.26
-147.83
-142.95
-124.46
-93.26
-53.46
-11.07
27.85
59.05
80.86
93.97
100.30
101.87
100.19
96.19
90.67
84.63
79.24
75.58
74.21
74.91
76.73
78.39
78.75
77.36
74.53
71.13
68.04
65.62
63.45
60.43
55.34
47.41
36.80
24.57
12.36
1.75
-6.30
-11.84
-15.85
-19.79
-25.02
-32.18
-40.97
-50.29
-58.73
-65.24
-69.48
-72.08
-74.37
-78.08
-84.86
-95.85
-111.18
-129.44
-147.31
-160.00
-162.34
-150.57
-124.01
-85.64
-41.43
1.68
37.94
64.41
81.08
89.99
93.65
94.00
92.05
88.22
83.05
77.41
72.47
69.22
68.05
68.60
69.91
70.95
71.03
69.95
67.95
65.47
62.78
59.87
56.43
52.07
46.47
39.55
31.55
22.93
14.28
6.23
-0.75
-6.42
-10.86
-14.38
-17.48
-20.78
-24.85
-30.01
-36.23
-43.06
-49.80
-55.77
-60.64
-64.64
-68.53
-73.43
-80.54
-90.83
-104.55
-120.76
-136.83
-148.67
-151.60
-141.93
-118.59
-83.85
-42.86
-2.03
33.11
59.30
76.05
84.77
87.66
86.64
83.01
77.74
71.76
66.21
62.20
60.43
60.83
62.61
64.54
65.58
65.33
64.13
62.78
61.88
61.39
60.44
57.74
52.18
43.52
32.58
20.88
10.13
1.45
-5.02
-10.04
-14.86
-20.61
-27.73
-35.83
-43.85
-50.59
-55.28
-58.00
-59.73
-62.15
-67.11
-76.08
-89.49
-106.09
-122.79
-135.08
-138.18
-128.70
-106.03
-72.86
-34.41
3.25
35.20
58.87
74.21
82.83
86.69
87.28
85.37
81.40
76.01
70.22
65.32
62.32
61.56
62.56
64.19
65.28
65.04
63.44
61.06
58.71
56.90
55.50
53.70
50.37
44.61
36.18
25.74
14.66
4.56
-3.34
-8.69
-12.13
-15.02
-18.85
-24.61
-32.39
-41.33
-50.10
-57.43
-62.65
-65.98
-68.42
-71.40
-76.47
-84.88
-97.27
-113.10
-130.20
-144.80
-152.11
-147.79
-129.57
-98.47
-58.77
-16.74
21.44
51.52
72.07
84.13
89.93
91.71
90.94
88.39
84.51
79.94
75.56
72.21
70.37
69.83
69.90
69.72
68.74
67.02
65.05
63.49
62.56
61.88
60.52
57.53
52.40
45.40
37.46
29.67
22.80
16.95
11.65
6.26
0.39
-5.81
-11.69
-16.50
-19.85
-21.93
-23.64
-26.11
-30.31
-36.56
-44.43
-52.92
-60.89
-67.58
-72.84
-77.18
-81.62
-87.42
-95.80
-107.47
-121.94
-137.02
-148.79
-152.46
-143.97
-121.69
-87.56
-46.57
-5.24
30.63
57.64
75.28
85.13
89.58
90.60
89.33
86.33
82.14
77.62
73.82
71.58
71.08
71.79
72.70
72.84
71.75
69.68
67.34
65.49
64.45
63.86
62.82
60.23
55.38
48.23
39.60
30.79
23.17
17.58
14.02
11.69
9.33
5.93
1.06
-4.80
-10.63
-15.33
-18.37
-20.05
-21.44
-23.96
-28.68
-35.86
-44.79
-54.07
-62.18
-68.15
-71.96
-74.47
-77.14
-81.52
-88.88
-99.75
-113.48
-127.94
-139.50
-143.70
-136.61
-116.39
-84.40
-45.12
-4.76
30.74
57.55
74.72
83.66
86.78
86.23
83.22
78.25
71.76
64.61
58.15
53.74
52.13
53.08
55.43
57.63
58.39
57.27
54.70
51.64
48.95
46.88
44.84
41.80
36.75
29.28
19.80
9.49
-0.17
-7.87
-12.97
-15.70
-17.06
-18.48
-21.20
-25.83
-32.08
-38.94
-45.14
-49.72
-52.52
-54.18
-55.96
-59.26
-65.32
-74.90
-87.97
-103.29
-118.08
-128.33
-129.64
-118.83
-95.33
-61.85
-23.62
13.29
43.92
65.81
79.04
85.44
87.26
86.20
83.11
78.37
72.38
65.87
59.92
55.53
53.32
53.19
54.36
55.74
56.35
55.72
53.96
51.55
49.00
46.50
43.83
40.48
35.87
29.69
21.96
13.13
3.96
-4.65
-11.88
-17.28
-20.93
-23.48
-26.03
-29.61
-34.88
-41.73
-49.41
-56.82
-63.03
-67.63
-70.91
-73.69
-77.02
-81.99
-89.54
-100.20
-113.58
-127.88
-139.60
-144.13
-137.24
-116.83
-84.17
-43.86
-2.38
34.13
61.73
79.46
88.75
92.05
91.55
88.59
83.85
77.90
71.65
66.28
62.84
61.75
62.61
64.37
65.79
66.04
65.04
63.44
62.13
61.67
61.89
61.84
60.23
56.06
49.21
40.46
31.20
22.81
16.11
11.04
6.88
2.69
-2.19
-7.79
-13.61
-18.79
-22.66
-24.95
-26.08
-26.98
-28.80
-32.52
-38.50
-46.37
-55.11
-63.47
-70.42
-75.61
-79.42
-82.86
-87.35
-94.32
-104.73
-118.40
-133.42
-146.04
-151.32
-144.76
-124.13
-90.72
-49.35
-6.75
30.67
58.77
76.52
85.37
87.91
86.56
82.86
77.62
71.38
64.87
59.08
54.94
53.03
53.28
55.03
57.19
58.78
59.15
58.26
56.52
54.50
52.56
50.57
47.97
44.01
38.19
30.50
21.46
12.06
3.37
-3.77
-9.04
-12.69
-15.47
-18.39
-22.28
-27.59
-34.19
-41.41
-48.40
-54.37
-58.97
-62.34
-65.14
-68.30
-72.90
-79.98
-90.21
-103.41
-118.00
-130.80
-137.44
-133.76
-117.36
-88.88
-52.11
-12.81
23.15
51.68
71.24
82.67
87.96
89.12
87.46
83.66
78.23
71.93
65.93
61.38
59.00
58.72
59.69
60.68
60.63
59.19
56.76
54.23
52.39
51.48
50.88
49.43
45.88
39.55
30.56
19.92
9.09
-0.50
-7.93
-13.12
-16.81
-20.23
-24.62
-30.65
-38.19
-46.31
-53.73
-59.40
-63.04
-65.27
-67.42
-71.06
-77.67
-88.12
-102.33
-118.82
-134.50
-145.00
-145.69
-133.39
-107.76
-71.86
-31.34
7.43
39.41
62.28
76.39
83.81
86.85
87.18
85.58
82.42
78.10
73.40
69.30
66.62
65.65
66.06
67.00
67.53
66.99
65.26
62.70
59.89
57.23
54.74
52.00
48.37
43.28
36.53
28.36
19.36
10.36
2.17
-4.61
-9.77
-13.57
-16.68
-20.05
-24.52
-30.55
-37.99
-46.14
-54.02
-60.74
-65.90
-69.74
-73.05
-77.02
-82.98
-92.07
-104.89
-120.84
-137.63
-151.29
-156.95
-150.35
-129.63
-96.42
-55.52
-13.48
23.67
52.13
71.03
81.76
86.73
88.13
87.29
84.83
81.12
76.70
72.40
69.12
67.41
67.29
68.11
68.88
68.69
67.09
64.28
60.96
57.85
55.32
53.12
50.50
46.55
40.68
32.84
23.61
13.95
4.97
-2.42
-7.80
-11.41
-14.03
-16.78
-20.65
-26.13
-32.94
-40.22
-46.89
-52.14
-55.84
-58.59
-61.47
-65.79
-72.72
-83.09
-97.00
-113.37
-129.56
-141.52
-144.64
-135.32
-112.55
-78.66
-38.78
0.77
34.58
59.63
75.58
84.08
87.34
87.20
84.73
80.55
75.36
70.15
66.07
63.94
63.89
65.24
66.84
67.56
66.85
64.88
62.39
60.21
58.70
57.55
55.82
52.36
46.32
37.63
27.07
16.10
6.34
-1.08
-5.89
-8.91
-11.62
-15.55
-21.63
-29.72
-38.79
-47.33
-54.15
-58.82
-61.86
-64.56
-68.48
-75.12
-85.54
-99.90
-117.05
-134.16
-146.91
-150.49
-141.22
-118.09
-83.54
-42.84
-2.36
32.52
58.80
76.19
86.24
91.13
92.61
91.74
89.14
85.40
81.35
77.92
75.81
75.21
75.71
76.51
76.74
75.96
74.25
72.16
70.30
68.89
67.50
65.21
61.02
54.50
46.00
36.67
27.89
20.72
15.44
11.46
7.74
3.35
-2.04
-8.00
-13.64
-18.06
-20.93
-22.71
-24.50
-27.56
-32.82
-40.42
-49.65
-59.27
-67.92
-74.69
-79.44
-82.80
-86.12
-91.12
-99.46
-112.01
-128.08
-144.88
-157.69
-161.11
-150.89
-125.83
-88.58
-44.97
-1.99
34.51
61.41
78.61
87.98
91.92
92.30
90.16
86.10
80.89
75.60
71.49
69.43
69.62
71.43
73.66
75.04
74.72
72.57
69.10
65.22
61.71
58.84
56.20
52.91
48.01
40.95
31.86
21.52
11.13
1.89
-5.37
-10.43
-13.68
-16.02
-18.53
-22.14
-27.25
-33.63
-40.47
-46.76
-51.76
-55.37
-58.17
-61.32
-66.12
-73.73
-84.87
-99.36
-115.79
-131.22
-141.46
-142.12
-130.15
-105.27
-70.42
-31.05
6.75
38.13
60.73
74.64
81.56
83.53
82.16
78.46
73.15
67.01
61.03
56.11
52.80
51.11
50.53
50.34
49.94
49.05
47.76
46.27
44.60
42.45
39.15
34.10
27.06
18.38
8.85
-0.65
-9.66
-18.26
-27.02
-36.50
-46.85
-57.58
-67.75
-76.37
-82.96
-87.78
-91.82
-96.56
-103.61
-114.19
-128.65
-145.88
-162.88
-175.12
-177.57
-166.39
-140.57
-102.68
-58.17
-13.65
25.22
55.30
76.17
89.36
97.06
101.03
102.30
101.44
99.02
95.91
93.12
91.47
91.20
91.85
92.43
91.91
89.65
85.75
80.93
76.15
72.10
68.81
65.65
61.59
55.65
47.42
37.25
26.24
15.89
7.56
1.98
-1.00
-2.42
-3.66
-5.91
-9.66
-14.46
-19.22
-22.61
-23.70
-22.25
-18.86
-14.83
-11.85
-11.65
-15.51
-23.60
-34.41
-44.61
-49.63
-44.97
-27.85
1.48
39.39
79.81
115.98
142.45
156.41
158.10
150.06
135.89
119.10
102.23
86.77
73.33
62.18
53.48
47.39
43.85
42.36
41.86
41.02
38.66
34.20
27.89
20.58
13.28
6.67
0.87
-4.57
-10.39
-17.22
-25.37
-34.61
-44.29
-53.48
-61.27
-67.01
-70.49
-72.11
-72.70
-73.34
-74.98
-78.08
-82.46
-87.38
-91.90
-95.26
-97.34
-98.70
-100.44
-103.87
-110.21
-120.29
-133.99
-149.78
-164.36
-172.93
-170.46
-153.56
-122.07
-79.73
-33.12
10.46
45.42
69.29
82.65
87.95
87.93
84.64
79.26
72.67
65.98
60.52
57.52
57.49
59.92
63.45
66.40
67.56
66.64
64.29
61.61
59.48
58.00
56.35
53.24
47.57
39.09
28.61
17.73
8.12
0.80
-4.26
-8.15
-12.45
-18.48
-26.66
-36.33
-46.07
-54.37
-60.27
-63.86
-66.17
-68.89
-73.87
-82.62
-95.70
-112.17
-129.19
-142.29
-146.37
-137.47
-114.35
-79.37
-37.94
3.33
38.69
64.95
81.79
90.86
94.52
94.64
92.30
88.06
82.58
76.80
71.82
68.49
67.04
66.99
67.40
67.36
66.47
64.87
63.09
61.57
60.30
58.78
56.18
51.85
45.69
38.22
30.40
23.09
16.75
11.25
6.03
0.53
-5.47
-11.61
-17.13
-21.31
-23.98
-25.69
-27.62
-31.05
-36.74
-44.53
-53.47
-62.17
-69.52
-75.10
-79.34
-83.32
-88.46
-96.23
-107.66
-122.85
-140.17
-155.96
-164.97
-161.85
-143.21
-109.39
-64.86
-16.94
26.68
60.46
82.39
93.71
97.47
96.69
93.40
88.45
82.25
75.41
69.04
64.45
62.52
63.24
65.67
68.25
69.51
68.68
65.90
62.03
58.16
54.99
52.48
49.90
46.15
40.34
32.18
22.16
11.34
1.07
-7.52
-13.77
-17.75
-20.19
-22.17
-24.79
-28.76
-34.13
-40.35
-46.52
-51.81
-55.84
-58.85
-61.63
-65.28
-71.00
-79.76
-92.10
-107.55
-124.16
-138.25
-145.09
-140.19
-121.15
-88.97
-48.18
-5.39
32.80
61.92
80.57
89.98
92.71
91.15
86.84
80.45
72.46
63.62
55.11
48.21
43.81
42.10
42.54
44.11
45.75
46.69
46.57
45.31
42.93
39.37
34.52
28.34
21.03
13.01
4.74
-3.48
-11.63
-19.84
-28.19
-36.46
-44.14
-50.59
-55.34
-58.43
-60.41
-62.33
-65.54
-71.40
-80.86
-93.85
-108.66
-121.79
-128.53
-124.54
-107.50
-78.45
-41.65
-3.25
30.82
56.68
73.33
82.05
85.24
85.08
82.90
79.25
74.39
68.74
63.03
58.06
54.41
52.21
51.13
50.62
50.15
49.42
48.28
46.63
44.22
40.69
35.68
29.08
21.23
12.76
4.32
-3.70
-11.36
-19.02
-27.04
-35.47
-43.87
-51.48
-57.56
-61.72
-64.22
-65.95
-68.28
-72.83
-80.97
-93.26
-108.79
-124.69
-136.44
-139.07
-128.78
-104.75
-69.74
-29.40
9.73
42.34
65.80
80.36
88.05
91.33
91.94
90.75
88.08
84.31
80.18
76.62
74.39
73.69
74.12
74.83
74.95
73.96
71.81
68.86
65.63
62.51
59.55
56.41
52.59
47.57
41.02
32.95
23.71
14.01
4.70
-3.42
-9.84
-14.56
-18.14
-21.56
-25.89
-31.83
-39.44
-48.04
-56.52
-63.83
-69.42
-73.51
-77.03
-81.28
-87.70
-97.46
-111.18
-128.31
-146.58
-161.90
-168.96
-162.89
-141.22
-105.26
-60.16
-13.23
28.43
60.19
80.81
91.91
96.40
96.96
95.19
91.75
86.99
81.54
76.43
72.80
71.30
71.86
73.58
75.22
75.68
74.50
71.90
68.60
65.30
62.29
59.27
55.52
50.25
43.02
33.95
23.70
13.27
3.70
-4.19
-9.99
-13.80
-16.27
-18.36
-21.14
-25.43
-31.48
-38.82
-46.51
-53.51
-59.06
-63.11
-66.24
-69.53
-74.25
-81.62
-92.52
-107.05
-123.96
-140.18
-151.15
-151.95
-139.02
-111.85
-73.54
-30.03
11.90
46.79
71.84
87.07
94.38
96.16
94.37
90.27
84.68
78.41
72.40
67.61
64.63
63.47
63.62
64.18
64.37
63.80
62.50
60.80
58.89
56.57
53.24
48.18
41.00
31.93
21.85
11.86
2.83
-4.96
-11.90
-18.75
-26.12
-34.12
-42.28
-49.71
-55.63
-59.74
-62.52
-65.15
-69.29
-76.64
-88.25
-103.81
-121.09
-135.95
-143.27
-138.53
-119.74
-88.40
-49.32
-8.96
26.80
54.42
73.27
84.83
91.24
94.10
94.05
91.21
85.93
79.25
72.78
68.06
65.93
66.18
67.67
68.90
68.74
66.89
63.92
60.84
58.49
56.92
55.32
52.32
46.69
37.96
26.74
14.52
3.17
-5.85
-12.02
-15.92
-18.97
-22.82
-28.63
-36.60
-45.86
-54.90
-62.22
-66.99
-69.45
-70.83
-72.97
-77.81
-86.91
-100.89
-118.88
-138.07
-153.87
-160.79
-154.17
-132.01
-96.13
-51.87
-6.40
33.70
64.34
84.62
96.08
101.23
102.25
100.37
96.21
90.39
83.91
78.13
74.26
72.78
73.24
74.40
74.86
73.66
70.69
66.71
62.84
59.91
57.99
56.31
53.53
48.42
40.40
29.87
18.06
6.61
-3.00
-9.99
-14.56
-17.74
-21.01
-25.68
-32.33
-40.56
-49.18
-56.79
-62.41
-65.97
-68.29
-70.80
-75.06
-82.38
-93.58
-108.63
-126.12
-142.93
-154.40
-155.42
-142.23
-114.19
-74.49
-29.32
14.19
50.30
76.18
92.00
99.79
101.95
100.28
95.82
89.34
81.81
74.49
68.63
64.97
63.44
63.25
63.34
62.85
61.56
59.73
57.82
56.01
53.95
50.85
45.85
38.55
29.28
19.07
9.12
0.33
-7.16
-13.94
-20.95
-28.87
-37.68
-46.64
-54.57
-60.52
-64.25
-66.46
-68.63
-72.59
-80.00
-91.79
-107.42
-124.47
-138.71
-144.98
-138.83
-118.34
-85.18
-44.29
-2.35
34.51
62.52
80.82
90.79
94.62
94.14
90.37
83.86
75.38
66.29
58.36
53.11
51.13
51.79
53.46
54.27
52.96
49.44
44.66
40.06
36.69
34.53
32.39
28.48
21.26
10.27
-3.55
-18.18
-31.32
-41.34
-47.82
-51.68
-54.66
-58.71
-65.39
-75.48
-88.80
-103.92
-118.08
-127.45
-127.98
-116.77
-93.42
-60.61
-23.44
12.25
41.76
62.86
75.72
81.90
83.01
79.92
72.84
62.16
49.13
36.02
25.37
19.04
17.35
18.97
21.54
22.82
21.60
18.06
13.47
9.26
6.24
4.14
1.73
-2.55
-10.01
-21.25
-36.07
-53.38
-71.22
-86.69
-96.27
-96.65
-85.77
-63.91
-33.88
-0.36
31.60
58.14
77.35
89.17
94.47
94.18
88.88
79.06
65.83
51.16
37.65
27.69
22.54
21.87
23.99
26.59
27.80
26.84
24.17
20.93
18.13
15.97
13.55
9.36
1.99
-8.98
-22.62
-36.94
-49.70
-59.29
-65.37
-68.90
-71.74
-75.90
-83.14
-94.35
-109.18
-125.63
-139.91
-147.04
-142.29
-123.04
-90.17
-48.25
-4.12
35.39
65.67
85.30
95.62
99.14
98.09
93.68
86.45
77.05
66.90
58.01
52.30
50.69
52.59
56.13
58.93
59.20
56.41
51.41
45.79
40.99
37.46
34.44
30.31
23.45
13.03
-0.48
-15.46
-29.73
-41.43
-49.66
-54.74
-58.05
-61.44
-66.73
-75.29
-87.60
-102.85
-118.71
-131.29
-136.00
-128.90
-108.32
-75.83
-36.05
4.80
40.95
68.74
87.29
97.81
102.36
102.65
99.66
93.92
86.17
77.68
70.12
64.97
62.87
63.35
65.01
66.21
65.77
63.50
60.09
56.66
54.00
52.06
49.87
45.95
39.12
29.10
16.85
4.22
-6.80
-14.91
-20.08
-23.51
-27.08
-32.39
-40.07
-49.45
-58.99
-66.98
-72.37
-75.26
-76.79
-78.76
-83.04
-91.17
-103.96
-121.00
-140.11
-157.18
-166.69
-163.25
-143.65
-108.54
-62.69
-13.62
30.95
65.59
88.40
100.62
105.09
104.46
100.36
93.57
84.81
75.41
67.21
61.96
60.42
62.12
65.49
68.63
70.20
69.78
67.87
65.26
62.52
59.62
56.11
51.50
45.75
39.36
33.15
27.82
23.54
19.87
16.02
11.35
5.71
-0.42
-6.21
-10.90
-14.30
-16.92
-19.79
-23.98
-30.07
-37.84
-46.38
-54.47
-61.15
-66.14
-69.92
-73.63
-78.70
-86.59
-98.35
-114.03
-131.95
-148.35
-157.81
-154.80
-135.82
-101.22
-55.56
-6.36
38.50
73.34
96.04
107.70
111.12
109.03
103.18
94.41
83.47
71.68
61.00
53.42
50.15
51.10
54.85
59.38
62.83
64.16
63.35
61.03
57.99
54.67
51.08
46.84
41.58
35.07
27.37
18.78
9.74
0.78
-7.49
-14.50
-19.84
-23.41
-25.64
-27.36
-29.66
-33.42
-38.99
-45.96
-53.42
-60.28
-65.77
-69.80
-72.91
-76.24
-81.12
-88.85
-100.37
-115.66
-133.07
-148.96
-158.03
-154.83
-135.77
-100.99
-54.84
-4.72
41.44
77.66
101.46
113.67
117.07
114.63
108.50
99.92
89.77
79.19
69.67
62.64
58.87
58.14
59.31
60.93
61.91
61.81
60.96
59.95
59.11
58.23
56.59
53.28
47.79
40.25
31.40
22.26
13.67
5.94
-1.14
-8.00
-14.91
-21.71
-27.81
-32.59
-35.86
-38.06
-40.23
-43.46
-48.40
-54.93
-62.18
-69.00
-74.53
-78.59
-81.74
-85.15
-90.27
-98.59
-111.09
-127.57
-145.98
-162.00
-169.83
-163.86
-140.92
-102.04
-52.56
-0.58
45.83
81.17
103.66
114.79
117.61
115.05
109.05
100.60
90.59
80.23
71.17
64.85
61.98
62.16
64.14
66.40
67.85
68.06
67.28
65.98
64.47
62.56
59.75
55.46
49.41
41.80
33.21
24.31
15.61
7.36
-0.45
-7.81
-14.58
-20.44
-25.08
-28.41
-30.81
-33.08
-36.15
-40.74
-46.93
-54.11
-61.20
-67.19
-71.55
-74.56
-77.19
-80.82
-86.96
-96.82
-110.79
-127.75
-144.63
-156.53
-157.85
-144.25
-114.61
-71.99
-22.99
24.50
63.85
91.58
107.61
114.05
113.60
108.30
99.36
87.76
74.96
63.02
54.04
49.34
48.80
51.04
53.96
55.80
55.85
54.51
52.87
51.89
51.68
51.37
49.41
44.35
35.65
23.95
10.95
-1.26
-11.06
-17.91
-22.52
-26.40
-31.14
-37.61
-45.60
-53.93
-61.10
-66.02
-68.55
-69.61
-70.86
-74.27
-81.58
-93.72
-110.33
-129.06
-145.61
-154.43
-150.34
-130.55
-96.07
-51.79
-4.96
37.24
69.91
91.47
103.10
107.27
106.28
101.54
93.82
83.95
73.35
63.95
57.55
55.08
56.16
59.26
62.37
63.93
63.35
61.17
58.56
56.52
55.23
53.84
50.90
45.05
35.79
23.82
10.84
-1.13
-10.54
-16.98
-21.23
-24.87
-29.55
-36.25
-44.86
-54.30
-63.09
-69.91
-74.29
-76.70
-78.46
-81.33
-87.09
-97.19
-112.11
-130.74
-149.86
-164.36
-168.41
-157.42
-130.03
-89.02
-40.75
7.06
47.79
77.76
96.63
106.36
109.61
108.53
104.42
98.11
90.54
83.10
77.27
74.14
73.87
75.67
78.11
79.89
80.29
79.48
78.21
77.18
76.52
75.54
73.06
68.00
60.05
49.88
38.99
29.00
21.04
15.27
10.93
6.79
1.79
-4.42
-11.38
-18.10
-23.60
-27.48
-30.23
-33.03
-37.34
-44.14
-53.44
-64.26
-74.98
-84.04
-90.63
-95.02
-98.40
-102.60
-109.57
-120.73
-136.34
-154.92
-172.87
-184.89
-185.23
-169.68
-137.37
-91.64
-39.32
11.43
53.74
83.83
101.54
109.25
110.27
107.40
102.38
96.11
89.35
83.07
78.39
76.18
76.54
78.77
81.56
83.69
84.52
84.03
82.73
81.07
79.16
76.55
72.56
66.66
58.80
49.55
39.86
30.67
22.54
15.55
9.37
3.60
-1.99
-7.26
-11.88
-15.59
-18.52
-21.31
-24.90
-30.16
-37.32
-45.91
-54.85
-62.95
-69.50
-74.54
-78.89
-83.90
-91.12
-101.89
-116.79
-134.92
-153.37
-167.33
-171.08
-159.95
-132.31
-90.73
-41.45
7.55
49.31
79.83
98.60
107.74
110.24
108.59
104.25
98.06
90.76
83.51
77.67
74.31
73.80
75.55
78.40
81.06
82.65
82.90
82.04
80.43
78.25
75.30
71.17
65.50
58.29
49.91
40.92
31.82
22.85
14.02
5.36
-2.93
-10.39
-16.52
-21.12
-24.55
-27.68
-31.65
-37.28
-44.65
-53.09
-61.45
-68.62
-74.08
-78.10
-81.67
-86.22
-93.32
-104.32
-119.77
-138.79
-158.46
-173.86
-179.13
-169.35
-142.59
-101.17
-51.24
-0.76
43.03
75.79
96.67
107.51
111.19
110.24
106.27
100.25
93.08
85.97
80.29
77.06
76.48
77.84
79.86
81.28
81.42
80.38
78.85
77.59
76.91
76.40
75.02
71.62
65.48
56.75
46.48
36.22
27.41
20.74
15.94
11.99
7.63
2.01
-4.86
-12.17
-18.70
-23.50
-26.41
-28.22
-30.42
-34.53
-41.41
-50.89
-61.80
-72.45
-81.38
-87.98
-92.71
-97.00
-102.76
-111.85
-125.39
-143.03
-162.48
-179.41
-188.20
-183.55
-162.37
-125.33
-77.06
-24.86
23.51
62.27
88.85
103.85
109.90
110.03
106.65
101.27
94.85
88.33
82.82
79.36
78.52
80.02
82.77
85.34
86.57
86.07
84.25
81.97
79.91
78.15
75.99
72.35
66.39
58.00
47.96
37.61
28.31
20.84
15.16
10.53
5.97
0.78
-5.03
-10.82
-15.70
-19.06
-21.02
-22.48
-24.83
-29.29
-36.34
-45.48
-55.37
-64.45
-71.58
-76.55
-80.10
-83.72
-89.18
-98.09
-111.37
-128.58
-147.41
-163.62
-171.70
-166.55
-145.42
-109.35
-63.28
-14.55
29.53
63.90
86.84
99.53
104.64
104.76
101.68
96.32
89.44
82.07
75.60
71.28
69.75
70.67
72.92
75.13
76.29
76.14
75.11
73.83
72.67
71.34
69.03
64.83
58.30
49.78
40.28
31.04
22.95
16.19
10.26
4.41
-1.89
-8.58
-15.04
-20.48
-24.44
-27.16
-29.62
-33.05
-38.47
-46.08
-55.20
-64.52
-72.71
-79.00
-83.51
-87.20
-91.62
-98.48
-109.21
-124.26
-142.43
-160.35
-172.79
-173.91
-159.35
-128.23
-84.03
-33.73
14.48
53.98
81.52
97.44
104.49
105.86
103.90
99.77
93.96
87.12
80.40
75.26
72.81
73.28
75.87
79.05
81.34
81.82
80.52
78.16
75.69
73.74
72.28
70.59
67.68
62.69
55.39
46.27
36.42
27.19
19.64
14.23
10.66
7.99
5.13
1.19
-4.05
-10.15
-16.19
-21.23
-24.79
-27.08
-29.09
-32.09
-37.26
-45.05
-55.04
-66.01
-76.42
-85.02
-91.26
-95.48
-98.82
-102.91
-109.57
-120.24
-135.42
-153.86
-172.14
-184.90
-186.17
-171.46
-139.74
-94.34
-42.22
8.34
50.38
80.22
97.85
105.82
107.53
105.69
101.87
96.78
90.96
85.30
80.88
78.57
78.56
80.20
82.20
83.30
82.77
80.68
77.74
74.85
72.55
70.79
68.88
65.94
61.23
54.57
46.35
37.49
29.00
21.82
16.43
12.84
10.51
8.58
6.13
2.49
-2.47
-8.30
-14.11
-18.96
-22.36
-24.55
-26.53
-29.66
-35.06
-43.10
-53.11
-63.65
-73.05
-80.14
-84.66
-87.31
-89.51
-92.99
-99.36
-109.73
-124.13
-140.97
-156.66
-166.00
-163.62
-145.88
-112.69
-68.04
-18.87
27.17
64.17
89.44
103.46
108.67
107.89
103.35
96.49
88.38
80.18
73.17
68.50
66.63
67.22
69.16
71.14
72.18
71.96
70.84
69.48
68.35
67.36
65.81
62.76
57.49
49.94
40.80
31.21
22.37
14.96
8.98
3.86
-1.16
-6.62
-12.43
-18.00
-22.54
-25.60
-27.46
-29.16
-32.07
-37.21
-44.72
-53.78
-62.89
-70.62
-76.29
-80.22
-83.71
-88.53
-96.42
-108.55
-124.84
-143.41
-160.33
-170.18
-167.48
-148.82
-114.50
-68.95
-19.51
26.00
61.86
85.81
98.91
104.05
104.25
101.57
96.95
90.86
83.96
77.36
72.34
69.80
69.83
71.65
73.95
75.53
75.74
74.76
73.29
72.10
71.45
70.86
69.26
65.50
58.99
49.97
39.54
29.25
20.49
14.03
9.76
6.83
4.03
0.28
-4.93
-11.42
-18.33
-24.56
-29.23
-32.09
-33.78
-35.60
-39.09
-45.29
-54.26
-65.03
-75.92
-85.25
-92.03
-96.42
-99.52
-103.14
-109.18
-119.15
-133.56
-151.32
-169.30
-182.49
-185.11
-172.40
-142.69
-98.53
-46.28
5.78
50.25
82.66
102.29
111.34
113.26
111.13
106.91
101.60
95.83
90.30
85.89
83.29
82.67
83.49
84.72
85.36
84.82
83.13
80.84
78.63
76.87
75.36
73.42
70.21
65.11
58.09
49.68
40.74
32.19
24.61
18.23
12.96
8.57
4.90
1.84
-0.77
-3.20
-5.85
-9.12
-13.18
-17.83
-22.57
-26.83
-30.36
-33.46
-36.97
-41.90
-48.89
-57.82
-67.71
-77.12
-84.66
-89.66
-92.38
-93.94
-96.00
-100.34
-108.43
-120.98
-137.29
-154.73
-168.74
-173.66
-164.53
-139.08
-99.13
-50.34
-0.54
42.86
75.16
95.19
104.75
106.98
104.81
100.18
94.12
87.37
80.87
75.76
73.00
72.85
74.71
77.30
79.26
79.80
78.93
77.38
76.04
75.33
74.86
73.55
70.10
63.74
54.65
43.97
33.38
24.40
17.75
13.17
9.63
5.88
1.10
-4.73
-10.86
-16.21
-19.99
-22.22
-23.79
-26.16
-30.67
-37.90
-47.35
-57.70
-67.30
-74.97
-80.39
-84.26
-88.01
-93.35
-101.85
-114.43
-130.69
-148.33
-163.04
-169.32
-162.20
-139.25
-101.96
-55.66
-7.86
34.25
66.05
86.34
96.73
100.15
99.31
95.95
90.97
84.98
78.77
73.38
69.75
68.32
68.87
70.54
72.29
73.26
73.07
71.90
70.16
68.19
66.02
63.25
59.33
53.83
46.70
38.23
28.99
19.58
10.45
1.92
-5.80
-12.50
-17.99
-22.30
-25.72
-28.95
-32.86
-38.11
-44.89
-52.74
-60.73
-67.83
-73.48
-77.78
-81.55
-86.15
-93.11
-103.72
-118.54
-136.75
-155.57
-170.40
-175.67
-166.68
-141.53
-102.33
-54.86
-6.77
34.97
66.10
85.84
96.06
99.78
99.65
97.29
93.56
89.04
84.57
81.10
79.39
79.53
80.91
82.43
83.07
82.36
80.51
78.26
76.37
75.22
74.42
73.00
69.85
64.31
56.51
47.44
38.44
30.62
24.39
19.26
14.24
8.37
1.33
-6.36
-13.64
-19.43
-23.29
-25.71
-27.93
-31.45
-37.32
-45.72
-55.88
-66.42
-75.96
-83.69
-89.65
-94.74
-100.48
-108.56
-120.40
-136.32
-154.90
-172.59
-184.06
-183.69
-167.61
-135.52
-91.26
-41.79
5.15
43.57
70.79
87.40
96.07
99.76
100.64
99.83
97.91
95.40
93.08
91.72
91.67
92.73
94.09
94.82
94.27
92.37
89.61
86.74
84.37
82.66
81.22
79.29
76.13
71.37
65.16
58.11
50.99
44.43
38.66
33.59
28.90
24.35
19.91
15.76
12.09
8.90
5.90
2.57
-1.60
-6.83
-12.84
-19.02
-24.68
-29.44
-33.54
-37.70
-42.91
-49.86
-58.56
-68.27
-77.73
-85.69
-91.38
-94.91
-97.22
-99.88
-104.69
-113.22
-126.23
-142.91
-160.42
-173.91
-177.67
-166.98
-140.16
-99.62
-51.45
-3.40
37.66
67.77
86.50
95.96
99.20
98.73
95.96
91.56
86.13
80.65
76.41
74.50
75.22
77.93
81.20
83.54
84.03
82.66
80.31
78.11
76.79
76.16
75.21
72.51
67.02
58.62
48.23
37.50
28.18
21.45
17.48
15.48
14.03
11.75
7.76
2.08
-4.50
-10.78
-15.74
-19.06
-21.29
-23.65
-27.46
-33.58
-41.91
-51.48
-60.88
-68.78
-74.56
-78.45
-81.46
-85.04
-90.74
-99.83
-112.83
-128.91
-145.38
-157.79
-160.86
-150.27
-124.57
-86.25
-41.22
3.14
40.47
67.35
83.67
91.72
94.44
94.09
91.79
87.94
82.96
77.70
73.33
70.83
70.53
71.89
73.77
74.99
74.85
73.44
71.47
69.84
69.13
69.13
68.93
67.20
62.86
55.58
45.95
35.37
25.49
17.69
12.50
9.49
7.48
5.06
1.18
-4.40
-11.04
-17.59
-22.88
-26.30
-28.16
-29.58
-32.04
-36.79
-44.24
-53.78
-64.00
-73.32
-80.53
-85.34
-88.42
-91.18
-95.43
-102.91
-114.69
-130.58
-148.45
-164.09
-171.97
-166.85
-145.78
-109.71
-63.54
-14.68
29.45
63.67
86.25
98.48
103.24
103.45
101.14
97.39
92.81
88.07
84.01
81.44
80.65
81.33
82.55
83.24
82.64
80.57
77.51
74.25
71.47
69.33
67.40
64.90
61.08
55.67
48.91
41.47
34.09
27.35
21.51
16.58
12.45
8.94
5.90
3.07
0.13
-3.23
-7.21
-11.82
-16.74
-21.53
-25.80
-29.43
-32.69
-36.26
-40.94
-47.30
-55.36
-64.46
-73.47
-81.20
-86.95
-90.83
-93.79
-97.30
-103.04
-112.40
-125.92
-142.69
-159.81
-172.56
-175.31
-163.45
-135.35
-93.54
-44.31
4.35
45.39
74.86
92.47
100.67
102.83
101.67
98.69
94.45
89.33
84.00
79.47
76.56
75.57
76.06
76.98
77.23
76.09
73.52
70.07
66.58
63.73
61.64
59.86
57.53
53.84
48.35
41.16
32.95
24.67
17.27
11.36
7.14
4.26
2.00
-0.46
-3.72
-7.91
-12.66
-17.21
-20.81
-23.11
-24.39
-25.57
-27.84
-32.24
-39.15
-48.09
-57.83
-66.84
-73.87
-78.45
-81.06
-82.90
-85.59
-90.68
-99.38
-112.01
-127.51
-143.00
-153.92
-155.10
-142.45
-114.87
-75.11
-29.28
15.25
52.13
77.97
92.66
98.40
98.13
94.26
88.23
80.80
72.69
64.93
58.69
54.94
53.98
55.31
57.79
60.18
61.55
61.60
60.63
59.09
57.29
55.06
51.92
47.33
41.07
33.41
24.95
16.34
8.08
0.43
-6.51
-12.63
-17.71
-21.49
-23.88
-25.17
-26.05
-27.46
-30.27
-34.87
-41.01
-47.86
-54.38
-59.80
-63.93
-67.33
-71.10
-76.66
-85.30
-97.70
-113.25
-129.56
-142.45
-146.86
-138.54
-115.85
-80.84
-38.83
3.25
39.25
65.50
81.42
88.75
90.12
87.85
83.48
77.89
71.78
65.98
61.29
58.22
56.78
56.40
56.26
55.66
54.34
52.58
50.95
49.85
49.14
48.01
45.31
40.05
32.01
21.91
11.14
1.11
-7.37
-14.42
-20.88
-27.75
-35.51
-43.85
-51.78
-58.22
-62.52
-64.95
-66.58
-69.06
-74.14
-83.19
-96.54
-112.97
-129.33
-140.95
-142.88
-131.57
-106.56
-70.94
-30.52
8.20
40.12
62.87
76.86
84.13
86.97
86.99
84.96
81.26
76.49
71.59
67.64
65.37
64.76
65.07
65.17
64.17
61.82
58.64
55.59
53.47
52.40
51.60
49.70
45.40
38.07
28.17
17.12
6.65
-1.87
-8.03
-12.54
-16.87
-22.48
-30.17
-39.66
-49.69
-58.70
-65.44
-69.57
-71.84
-73.85
-77.56
-84.85
-96.83
-113.31
-132.20
-149.47
-159.79
-158.11
-141.54
-110.73
-69.97
-25.93
14.66
47.06
69.57
83.21
90.43
93.69
94.64
94.06
92.31
89.85
87.36
85.56
84.92
85.36
86.31
86.93
86.53
84.87
82.25
79.35
76.81
74.89
73.20
70.89
67.01
60.98
52.96
43.81
34.83
27.23
21.72
18.17
15.74
13.17
9.36
3.78
-3.22
-10.61
-17.10
-21.79
-24.64
-26.54
-29.02
-33.55
-40.95
-50.94
-62.31
-73.39
-82.70
-89.51
-94.07
-97.46
-101.31
-107.42
-117.25
-131.35
-148.62
-165.90
-178.12
-179.65
-166.21
-136.83
-94.66
-46.20
0.85
40.20
68.62
86.21
95.37
99.05
99.51
98.02
95.17
91.53
88.01
85.62
85.05
86.27
88.45
90.31
90.68
89.07
85.79
81.80
78.16
75.52
73.71
71.87
68.82
63.69
56.36
47.49
38.32
30.17
23.97
19.91
17.44
15.50
12.95
9.05
3.76
-2.30
-8.11
-12.75
-15.90
-18.00
-20.12
-23.51
-29.07
-36.90
-46.27
-55.90
-64.47
-71.13
-75.71
-78.82
-81.63
-85.63
-92.30
-102.64
-116.56
-132.22
-145.90
-152.61
-147.63
-128.38
-95.78
-54.30
-10.61
28.71
59.19
79.40
90.54
95.08
95.35
92.91
88.54
82.82
76.61
71.04
67.17
65.56
66.04
67.82
69.81
71.14
71.36
70.52
68.90
66.76
64.10
60.71
56.26
50.59
43.80
36.25
28.36
20.52
12.97
5.82
-0.77
-6.62
-11.46
-15.19
-18.03
-20.56
-23.64
-28.05
-34.13
-41.54
-49.38
-56.52
-62.15
-66.08
-68.92
-71.85
-76.35
-83.83
-95.18
-110.16
-126.83
-141.40
-148.91
-144.69
-126.23
-94.49
-53.95
-11.22
27.17
56.80
76.31
86.86
90.95
90.93
88.36
84.07
78.68
73.01
68.13
65.00
64.02
64.85
66.52
67.85
68.06
67.06
65.43
63.99
63.30
63.20
62.79
60.80
56.16
48.64
38.98
28.74
19.61
12.78
8.43
5.72
3.25
-0.29
-5.44
-11.80
-18.19
-23.36
-26.62
-28.28
-29.51
-31.87
-36.52
-43.75
-52.80
-62.27
-70.68
-77.08
-81.40
-84.43
-87.54
-92.38
-100.45
-112.64
-128.52
-145.83
-160.24
-166.26
-158.89
-135.69
-98.13
-51.58
-3.59
38.65
70.41
90.51
100.67
103.98
103.34
100.61
96.60
91.74
86.51
81.65
77.94
75.81
75.16
75.34
75.49
74.97
73.60
71.68
69.74
68.12
66.71
64.90
61.91
57.17
50.64
42.82
34.57
26.74
19.97
14.54
10.46
7.57
5.55
3.98
2.31
-0.05
-3.50
-8.13
-13.55
-19.08
-24.01
-27.97
-31.14
-34.30
-38.57
-44.83
-53.37
-63.57
-74.14
-83.59
-90.82
-95.54
-98.39
-100.72
-104.26
-110.73
-121.40
-136.48
-154.40
-171.44
-182.11
-180.67
-163.24
-129.73
-84.47
-34.98
10.57
45.96
68.65
79.62
81.99
79.15
73.48
66.15
57.63
48.50
39.77
32.73
28.43
27.16
28.25
30.42
32.29
32.99
32.46
31.31
30.43
30.53
31.75
33.69
35.57
36.61
36.27
34.42
31.40
27.87
24.68
22.57
21.92
22.62
24.20
26.02
27.66
29.07
30.64
32.91
36.31
40.85
46.04
51.01
54.76
56.60
56.44
54.95
53.33
52.96
54.79
58.95
64.68
70.37
73.81
72.50
64.12
47.45
23.48
-3.99
-28.70
-43.69
-43.83
-28.06
0.02
33.33
64.12
86.66
98.70
101.20
96.77
87.90
76.04
61.75
45.34
27.64
10.14
-5.45
-17.76
-26.29
-31.45
-34.26
-35.87
-37.09
-38.23
-39.25
-40.01
-40.59
-41.33
-42.75
-45.20
-48.68
-52.78
-56.88
-60.51
-63.54
-66.22
-68.93
-71.85
-74.87
-77.53
-79.39
-80.39
-80.89
-81.54
-82.89
-84.95
-87.25
-88.96
-89.49
-88.81
-87.60
-87.06
-88.60
-93.51
-102.59
-115.70
-131.18
-145.56
-153.90
-150.97
-133.18
-100.19
-55.65
-6.21
40.51
78.39
104.36
118.53
123.18
121.16
114.87
105.85
95.28
84.38
74.63
67.39
63.35
62.24
62.88
63.71
63.54
61.95
59.36
56.55
54.08
51.76
48.73
43.86
36.46
26.74
15.87
5.47
-3.09
-9.32
-13.81
-17.90
-22.99
-29.84
-38.26
-47.16
-55.13
-61.08
-64.82
-67.11
-69.54
-74.05
-82.29
-94.94
-111.01
-127.48
-139.67
-142.40
-131.76
-106.80
-70.18
-27.54
14.36
49.77
75.54
91.35
98.92
100.66
98.60
94.04
87.80
80.71
73.72
67.86
63.79
61.60
60.76
60.41
59.81
58.64
57.08
55.50
54.06
52.44
49.79
45.14
37.91
28.30
17.32
6.39
-3.31
-11.29
-17.99
-24.41
-31.60
-39.98
-49.14
-57.96
-65.19
-70.01
-72.48
-73.65
-75.28
-79.42
-87.80
-101.05
-117.95
-135.10
-147.38
-149.28
-136.87
-109.58
-70.74
-26.58
15.83
50.95
76.13
91.61
99.39
101.79
100.57
96.78
91.22
84.80
78.74
74.13
71.51
70.62
70.57
70.19
68.65
65.79
62.15
58.64
56.07
54.63
53.64
51.80
47.68
40.35
29.93
17.58
5.16
-5.50
-13.34
-18.42
-21.96
-25.70
-31.15
-38.93
-48.46
-58.30
-66.74
-72.62
-75.78
-77.16
-78.52
-81.92
-89.23
-101.58
-118.64
-138.12
-155.65
-165.54
-162.48
-143.47
-109.41
-65.09
-17.74
25.34
59.18
82.04
95.10
100.99
102.27
100.56
96.63
91.01
84.54
78.50
74.17
72.34
72.87
74.74
76.50
76.92
75.42
72.31
68.48
64.84
61.90
59.41
56.51
52.17
45.60
36.73
26.20
15.21
5.15
-2.88
-8.38
-11.68
-13.79
-16.06
-19.67
-25.19
-32.30
-40.01
-47.11
-52.69
-56.56
-59.38
-62.32
-66.81
-74.18
-85.41
-100.70
-119.01
-137.50
-151.60
-156.06
-146.59
-121.82
-84.20
-39.50
5.06
43.18
71.29
88.93
97.85
100.54
99.00
94.38
87.43
79.09
70.77
64.11
60.31
59.62
61.23
63.58
65.17
65.17
63.70
61.63
59.85
58.70
57.60
55.26
50.37
42.31
31.61
19.76
8.73
0.05
-5.79
-9.55
-12.81
-17.29
-23.97
-32.65
-42.08
-50.59
-56.85
-60.54
-62.45
-64.26
-67.96
-75.27
-87.22
-103.55
-122.29
-139.63
-150.47
-149.79
-134.52
-104.94
-64.97
-21.02
20.16
53.60
77.16
91.39
98.26
99.89
97.82
93.00
86.26
78.77
71.93
67.05
64.71
64.62
65.70
66.63
66.50
65.15
63.13
61.28
60.05
59.09
57.30
53.31
46.21
36.14
24.31
12.56
2.53
-5.00
-10.44
-15.10
-20.52
-27.69
-36.57
-46.14
-54.87
-61.45
-65.42
-67.45
-69.14
-72.55
-79.66
-91.64
-108.25
-127.28
-144.54
-154.59
-152.40
-135.12
-103.49
-61.88
-17.00
24.33
57.26
79.99
93.40
99.90
101.91
101.10
98.29
93.98
88.81
83.76
79.89
77.90
77.83
79.03
80.44
81.07
80.43
78.65
76.32
74.05
72.06
70.09
67.47
63.58
58.08
51.15
43.33
35.38
27.99
21.63
16.52
12.67
9.84
7.63
5.45
2.66
-1.26
-6.44
-12.56
-18.91
-24.68
-29.35
-32.97
-36.25
-40.33
-46.21
-54.34
-64.23
-74.71
-84.26
-91.77
-96.89
-100.22
-103.15
-107.51
-115.13
-127.23
-143.68
-162.33
-178.82
-187.29
-182.05
-159.75
-121.10
-71.09
-17.60
31.16
69.25
94.35
107.59
112.11
111.32
107.76
102.84
97.29
91.76
87.04
83.95
82.92
83.71
85.42
86.81
86.88
85.21
82.18
78.63
75.49
73.19
71.45
69.36
65.82
60.03
51.99
42.44
32.65
23.97
17.28
12.79
10.00
7.99
5.67
2.30
-2.39
-8.04
-13.87
-19.02
-22.89
-25.49
-27.48
-29.96
-34.00
-40.23
-48.50
-57.94
-67.26
-75.25
-81.21
-85.23
-88.11
-91.18
-96.05
-104.22
-116.54
-132.51
-149.57
-163.13
-167.47
-157.59
-131.39
-90.95
-42.28
6.62
48.47
78.87
97.04
104.99
105.87
102.39
96.27
88.45
79.79
71.49
64.91
61.11
60.30
61.82
64.35
66.59
67.76
67.83
67.29
66.67
66.13
65.24
63.12
59.02
52.69
44.61
35.79
27.30
19.83
13.42
7.64
1.85
-4.32
-10.74
-16.83
-21.84
-25.35
-27.57
-29.36
-31.91
-36.21
-42.56
-50.40
-58.61
-65.96
-71.69
-75.86
-79.29
-83.41
-89.84
-100.01
-114.48
-132.17
-149.85
-162.32
-163.71
-149.63
-119.20
-75.95
-26.92
19.72
57.43
83.11
97.26
102.70
102.67
99.50
94.27
87.39
79.40
71.34
64.62
60.42
59.18
60.37
62.75
64.91
65.80
65.13
63.29
60.98
58.74
56.60
54.06
50.26
44.49
36.44
26.42
15.27
4.13
-5.89
-13.96
-19.79
-23.65
-26.31
-28.85
-32.28
-37.25
-43.81
-51.36
-58.93
-65.58
-70.78
-74.60
-77.74
-81.34
-86.78
-95.37
-107.98
-124.39
-142.61
-158.70
-167.27
-163.14
-143.25
-108.31
-62.97
-14.50
29.63
64.08
86.86
99.08
103.54
103.16
99.98
95.09
89.12
82.81
77.19
73.22
71.45
71.62
72.83
73.92
74.10
73.19
71.64
70.10
68.99
68.08
66.56
63.45
58.08
50.48
41.43
32.09
23.49
16.11
9.80
3.90
-2.21
-8.79
-15.47
-21.47
-26.06
-29.07
-31.10
-33.35
-37.16
-43.31
-51.69
-61.26
-70.54
-78.23
-83.84
-87.85
-91.57
-96.80
-105.29
-118.14
-135.18
-154.35
-171.56
-181.26
-178.05
-158.56
-123.18
-76.35
-25.38
21.92
59.63
85.24
99.50
105.18
105.43
102.55
97.85
92.03
85.82
80.16
76.04
74.00
73.88
74.82
75.77
75.99
75.42
74.56
74.07
74.23
74.59
74.14
71.73
66.70
59.25
50.33
41.24
32.96
25.83
19.50
13.30
6.74
-0.13
-6.71
-12.22
-16.22
-18.90
-21.12
-24.08
-28.75
-35.52
-43.92
-52.93
-61.35
-68.33
-73.74
-78.20
-82.92
-89.44
-99.23
-113.07
-130.34
-148.46
-162.82
-167.82
-158.67
-133.44
-94.26
-46.98
0.66
41.63
71.75
90.28
99.23
101.61
99.98
95.78
89.68
82.27
74.60
68.11
64.12
63.20
64.89
67.84
70.42
71.40
70.43
68.09
65.39
63.23
61.84
60.57
58.17
53.40
45.56
34.92
22.66
10.51
0.11
-7.55
-12.45
-15.58
-18.42
-22.43
-28.40
-36.19
-44.84
-52.93
-59.29
-63.44
-65.85
-67.76
-70.79
-76.60
-86.43
-100.79
-119.00
-138.66
-155.58
-164.49
-160.48
-140.97
-107.02
-63.42
-17.25
24.47
56.93
78.57
90.61
95.68
96.31
94.07
89.73
83.79
77.11
70.99
66.82
65.42
66.66
69.39
71.97
72.99
71.88
69.11
65.82
63.14
61.48
60.28
58.18
53.70
46.00
35.27
22.79
10.45
0.05
-7.35
-11.80
-14.44
-16.97
-21.03
-27.48
-36.17
-45.98
-55.37
-63.04
-68.49
-72.16
-75.29
-79.54
-86.57
-97.76
-113.57
-133.00
-153.01
-168.72
-174.44
-165.56
-140.51
-101.71
-55.11
-8.19
32.51
63.24
83.52
95.14
100.72
102.42
101.56
98.83
94.94
90.85
87.59
85.96
86.07
87.34
88.75
89.33
88.63
86.79
84.48
82.41
80.89
79.59
77.62
73.95
67.91
59.61
49.94
40.28
31.90
25.49
20.79
16.81
12.30
6.36
-1.04
-9.07
-16.42
-22.02
-25.63
-28.05
-30.81
-35.45
-42.84
-52.71
-63.86
-74.67
-83.71
-90.44
-95.27
-99.48
-104.82
-113.12
-125.64
-142.45
-161.68
-179.34
-189.87
-187.63
-169.02
-134.16
-87.33
-35.77
12.59
51.73
78.92
94.74
101.94
103.70
102.51
99.82
96.34
92.65
89.44
87.43
87.01
88.00
89.57
90.63
90.35
88.54
85.72
82.88
80.85
79.77
78.93
76.98
72.66
65.38
55.62
44.75
34.48
26.21
20.39
16.57
13.57
10.14
5.51
-0.31
-6.59
-12.35
-16.82
-19.92
-22.34
-25.29
-29.94
-36.94
-45.99
-56.01
-65.53
-73.28
-78.81
-82.54
-85.69
-89.92
-96.92
-107.88
-122.95
-140.58
-157.18
-167.52
-166.13
-149.31
-116.87
-72.82
-24.20
21.19
57.41
81.90
95.47
100.92
101.35
98.87
94.48
88.54
81.59
74.62
68.95
65.66
65.13
66.81
69.49
71.82
72.84
72.30
70.58
68.28
65.85
63.21
59.88
55.27
48.98
41.10
32.10
22.66
13.43
4.94
-2.45
-8.51
-13.19
-16.70
-19.58
-22.65
-26.79
-32.52
-39.82
-47.98
-55.96
-62.76
-67.94
-71.79
-75.26
-79.72
-86.64
-97.23
-111.92
-129.74
-147.74
-161.17
-164.54
-153.49
-126.75
-87.02
-40.43
5.55
44.55
73.09
90.87
99.83
102.58
101.29
97.33
91.60
85.04
78.78
73.97
71.28
70.67
71.42
72.47
72.93
72.44
71.22
69.75
68.43
67.16
65.37
62.31
57.42
50.72
42.72
34.22
25.90
18.10
10.81
3.84
-2.90
-9.25
-14.89
-19.56
-23.28
-26.52
-30.13
-34.95
-41.52
-49.72
-58.79
-67.57
-75.02
-80.67
-84.86
-88.70
-93.78
-101.86
-114.16
-130.72
-149.70
-167.06
-177.20
-174.58
-155.78
-121.19
-75.35
-25.57
20.44
57.05
82.03
96.29
102.55
103.71
101.84
98.06
93.09
87.74
83.03
79.92
78.81
79.33
80.50
81.18
80.67
78.96
76.71
74.74
73.52
72.82
71.72
69.06
63.96
56.39
47.06
37.27
28.27
20.78
14.76
9.52
4.14
-2.02
-8.95
-16.01
-22.22
-26.87
-29.92
-32.21
-35.06
-39.68
-46.55
-55.17
-64.30
-72.52
-78.92
-83.50
-87.14
-91.34
-97.81
-108.03
-122.68
-140.92
-159.77
-174.25
-178.40
-167.36
-139.47
-97.41
-47.75
1.34
42.72
72.48
90.31
98.59
100.52
98.67
94.51
88.79
82.17
75.68
70.62
67.98
68.01
70.00
72.52
74.08
73.68
71.29
67.71
64.12
61.44
59.74
58.20
55.42
50.09
41.62
30.53
18.22
6.56
-2.91
-9.47
-13.48
-16.21
-19.21
-23.80
-30.42
-38.55
-46.95
-54.28
-59.65
-63.02
-65.22
-67.68
-71.99
-79.61
-91.50
-107.59
-126.29
-144.12
-156.08
-156.89
-142.91
-113.84
-73.29
-27.85
15.15
50.01
74.13
87.99
93.99
94.83
92.47
87.98
81.98
75.21
68.69
63.46
60.09
58.52
58.10
57.99
57.62
56.88
56.00
55.16
54.21
52.55
49.34
43.92
36.19
26.73
16.57
6.73
-2.22
-10.35
-18.21
-26.44
-35.25
-44.32
-52.79
-59.71
-64.52
-67.35
-69.18
-71.63
-76.62
-85.80
-99.82
-117.58
-135.74
-149.20
-152.37
-141.27
-115.19
-77.37
-34.01
7.90
42.86
68.24
84.26
92.84
96.22
96.00
93.08
88.13
82.02
76.02
71.36
68.80
68.32
69.08
69.86
69.58
67.74
64.68
61.25
58.41
56.60
55.38
53.54
49.58
42.46
32.22
20.04
7.92
-2.22
-9.26
-13.45
-16.23
-19.63
-25.28
-33.69
-44.05
-54.69
-63.86
-70.48
-74.61
-77.30
-80.22
-85.23
-93.89
-107.09
-124.47
-143.84
-161.05
-170.62
-167.30
-148.18
-114.09
-69.75
-22.31
21.04
55.31
78.74
92.43
98.93
100.86
99.99
97.34
93.50
89.19
85.29
82.65
81.69
82.24
83.52
84.57
84.66
83.51
81.38
78.79
76.16
73.52
70.48
66.51
61.21
54.56
46.89
38.67
30.33
22.09
14.01
6.15
-1.30
-8.04
-13.78
-18.43
-22.28
-26.03
-30.52
-36.46
-44.03
-52.78
-61.75
-69.90
-76.57
-81.79
-86.37
-91.72
-99.46
-111.02
-126.87
-145.89
-164.87
-178.74
-181.83
-169.73
-141.26
-99.39
-50.50
-2.38
38.39
68.17
86.74
96.20
99.46
98.84
95.73
90.87
85.02
79.22
74.70
72.33
72.20
73.56
75.13
75.74
74.84
72.69
70.13
67.97
66.42
64.89
62.13
56.89
48.55
37.57
25.34
13.74
4.34
-2.24
-6.60
-10.26
-14.95
-21.80
-30.80
-40.84
-50.26
-57.66
-62.57
-65.66
-68.50
-73.02
-80.99
-93.47
-110.25
-129.33
-146.79
-157.38
-156.01
-139.65
-108.78
-67.68
-23.10
17.98
50.61
72.92
85.89
91.98
93.69
92.70
89.86
85.63
80.62
75.67
71.68
69.25
68.45
68.77
69.42
69.63
68.97
67.41
65.15
62.32
58.78
54.11
47.88
39.97
30.69
20.72
10.77
1.23
-7.97
-17.16
-26.63
-36.19
-45.26
-53.03
-58.98
-63.20
-66.50
-70.34
-76.41
-86.21
-100.40
-118.06
-136.34
-150.57
-155.44
-146.79
-123.37
-87.64
-45.22
-2.97
33.32
60.47
78.31
88.61
93.72
95.35
94.38
91.25
86.56
81.41
77.11
74.62
74.10
74.79
75.43
74.85
72.64
69.28
65.81
63.25
61.80
60.72
58.46
53.51
45.09
33.67
20.87
8.83
-0.70
-7.11
-11.18
-14.64
-19.40
-26.62
-36.20
-46.93
-57.00
-64.98
-70.30
-73.58
-76.28
-80.28
-87.45
-99.10
-115.50
-135.16
-154.46
-168.03
-170.11
-156.62
-127.01
-84.92
-37.23
8.32
45.70
72.13
88.15
96.27
99.34
99.42
97.46
93.93
89.39
84.81
81.28
79.58
79.73
81.03
82.34
82.71
81.69
79.51
76.76
73.96
71.17
67.98
63.76
58.06
50.94
42.96
34.94
27.50
20.83
14.61
8.29
1.48
-5.74
-12.82
-18.97
-23.60
-26.77
-29.19
-32.08
-36.55
-43.08
-51.28
-60.03
-67.98
-74.21
-78.64
-82.11
-86.11
-92.47
-102.75
-117.64
-136.18
-155.21
-169.54
-173.21
-161.50
-133.04
-90.86
-41.68
6.35
46.35
74.75
91.60
99.39
101.23
99.40
95.01
88.57
80.79
73.06
67.09
64.26
64.90
68.12
72.09
74.96
75.56
73.86
70.75
67.50
64.97
63.10
60.99
57.22
50.68
41.09
29.24
16.77
5.54
-3.04
-8.60
-11.96
-14.73
-18.63
-24.77
-33.14
-42.66
-51.73
-58.93
-63.70
-66.48
-68.61
-71.80
-77.72
-87.63
-102.02
-120.07
-139.12
-154.67
-161.27
-154.18
-131.37
-94.69
-49.71
-3.83
36.18
66.21
85.52
95.90
100.11
100.41
98.00
93.37
87.04
80.03
73.79
69.63
68.14
68.93
70.77
72.19
72.07
70.19
67.11
63.86
61.26
59.40
57.52
54.28
48.38
39.24
27.33
14.11
1.51
-8.80
-16.05
-20.63
-23.93
-27.67
-33.21
-40.95
-50.17
-59.38
-66.98
-71.99
-74.47
-75.55
-77.01
-80.80
-88.55
-101.17
-118.30
-137.81
-155.63
-166.23
-164.16
-145.98
-112.03
-66.73
-17.40
28.20
64.32
88.64
102.13
107.62
108.11
105.66
101.25
95.36
88.65
82.11
76.87
73.67
72.55
72.79
73.33
73.30
72.31
70.55
68.47
66.34
64.06
61.13
57.01
51.42
44.52
36.77
28.70
20.61
12.55
4.42
-3.78
-11.76
-18.95
-24.76
-28.99
-32.03
-34.89
-38.79
-44.61
-52.45
-61.49
-70.38
-77.76
-82.97
-86.27
-88.74
-91.98
-97.69
-107.24
-121.19
-138.53
-156.24
-169.28
-171.82
-159.23
-130.15
-87.59
-38.21
9.87
49.88
78.27
95.12
102.93
104.76
102.88
98.41
91.93
84.18
76.50
70.44
67.08
66.56
67.89
69.47
69.84
68.34
65.34
61.95
59.35
58.15
57.91
57.32
54.69
48.79
39.44
27.65
15.32
4.36
-4.07
-10.02
-14.66
-19.60
-26.06
-34.23
-43.17
-51.35
-57.37
-60.61
-61.55
-61.58
-62.56
-66.28
-74.14
-86.79
-103.67
-122.46
-139.02
-147.96
-144.24
-125.15
-91.72
-48.87
-3.83
36.26
66.69
86.08
95.91
98.88
97.48
93.20
86.70
78.60
69.93
62.11
56.42
53.43
52.79
53.46
54.24
54.34
53.62
52.40
51.03
49.45
47.11
43.20
37.13
28.93
19.33
9.43
0.15
-8.14
-15.75
-23.35
-31.53
-40.33
-49.18
-57.09
-63.20
-67.15
-69.38
-71.05
-73.84
-79.53
-89.47
-103.84
-120.89
-136.73
-145.95
-143.31
-125.74
-93.94
-52.50
-8.49
31.06
61.33
80.91
91.24
95.14
95.18
92.81
88.48
82.41
75.18
68.06
62.45
59.42
59.13
60.76
62.86
64.03
63.52
61.48
58.71
56.13
54.12
52.27
49.48
44.50
36.60
25.94
13.67
1.56
-8.66
-15.87
-20.07
-22.27
-24.23
-27.65
-33.60
-41.99
-51.69
-61.03
-68.51
-73.42
-76.13
-77.86
-80.26
-85.02
-93.55
-106.64
-123.82
-142.81
-159.25
-167.41
-161.92
-139.98
-102.88
-56.03
-7.22
36.01
68.74
89.70
100.56
104.37
103.86
100.67
95.55
88.99
81.83
75.28
70.56
68.29
68.30
69.59
70.91
71.21
70.02
67.55
64.39
61.09
57.91
54.62
50.75
45.79
39.43
31.72
22.99
13.79
4.73
-3.58
-10.73
-16.48
-20.90
-24.33
-27.41
-30.87
-35.29
-40.89
-47.34
-53.91
-59.80
-64.47
-67.96
-70.95
-74.60
-80.28
-89.27
-102.38
-119.40
-138.33
-155.23
-164.62
-161.14
-141.59
-106.67
-61.23
-12.83
30.86
64.47
86.22
97.40
100.88
99.40
94.75
87.84
79.44
70.72
63.25
58.42
56.82
57.90
60.21
62.12
62.60
61.52
59.66
58.02
57.13
56.62
55.27
51.62
44.73
34.77
23.02
11.42
1.70
-5.28
-9.97
-13.69
-18.15
-24.45
-32.67
-41.82
-50.36
-56.99
-61.22
-63.69
-65.89
-69.65
-76.69
-88.08
-103.74
-121.89
-138.92
-149.83
-149.51
-134.66
-105.29
-65.23
-21.04
20.21
53.15
75.50
87.96
92.97
93.20
90.53
85.95
80.02
73.39
66.99
61.82
58.55
57.27
57.46
58.31
58.99
59.00
58.15
56.45
53.90
50.35
45.55
39.33
31.78
23.27
14.33
5.36
-3.55
-12.53
-21.83
-31.45
-40.99
-49.78
-57.10
-62.50
-66.17
-68.87
-71.93
-76.98
-85.54
-98.37
-114.65
-131.47
-144.05
-146.97
-136.08
-110.38
-72.81
-29.42
12.63
47.58
72.59
87.96
95.92
99.05
99.11
96.82
92.41
86.38
79.84
74.25
70.86
70.08
71.30
73.13
74.09
73.28
70.71
67.19
63.81
61.31
59.63
57.86
54.65
48.84
39.99
28.68
16.35
4.76
-4.61
-11.20
-15.51
-18.88
-22.92
-28.82
-36.88
-46.37
-55.94
-64.17
-70.19
-74.05
-76.67
-79.57
-84.49
-92.98
-105.98
-123.26
-142.80
-160.60
-171.18
-169.10
-150.96
-117.06
-71.78
-22.32
23.65
60.50
85.86
100.55
107.15
108.40
106.23
101.71
95.55
88.71
82.48
78.12
76.29
76.76
78.48
80.12
80.65
79.77
77.91
75.80
73.97
72.31
70.09
66.33
60.37
52.29
42.91
33.46
24.96
17.82
11.73
6.01
0.05
-6.26
-12.48
-17.89
-21.99
-24.89
-27.41
-30.73
-35.89
-43.22
-52.19
-61.62
-70.14
-76.83
-81.63
-85.38
-89.60
-96.13
-106.54
-121.48
-139.96
-158.88
-173.18
-177.07
-165.93
-138.31
-96.94
-48.14
0.21
41.28
71.28
89.86
99.14
101.99
100.63
96.26
89.49
81.14
72.63
65.77
62.03
61.89
64.62
68.53
71.78
73.12
72.29
70.03
67.44
65.41
64.01
62.41
59.27
53.33
44.16
32.37
19.49
7.48
-2.10
-8.62
-12.61
-15.57
-19.20
-24.76
-32.47
-41.48
-50.25
-57.35
-62.01
-64.54
-66.15
-68.55
-73.47
-82.27
-95.62
-112.97
-132.17
-149.21
-158.87
-156.19
-138.31
-106.01
-63.75
-18.39
23.19
56.19
78.92
92.34
98.69
100.15
98.05
93.19
86.31
78.66
71.84
67.32
65.81
66.94
69.43
71.64
72.30
71.02
68.31
65.25
62.79
61.20
59.78
57.21
52.10
43.75
32.54
19.89
7.77
-2.14
-9.10
-13.61
-17.15
-21.51
-27.90
-36.44
-46.07
-55.15
-62.17
-66.52
-68.74
-70.30
-73.09
-78.93
-89.13
-104.03
-122.55
-141.74
-156.91
-162.58
-154.21
-130.11
-92.56
-47.34
-1.91
37.18
66.15
84.57
94.45
98.59
99.24
97.51
93.82
88.54
82.51
76.96
73.05
71.40
71.78
73.29
74.77
75.29
74.50
72.58
70.03
67.25
64.35
61.05
56.92
51.57
44.85
36.88
27.96
18.55
9.14
0.27
-7.54
-13.91
-18.72
-22.29
-25.34
-28.84
-33.67
-40.22
-48.24
-56.92
-65.15
-72.08
-77.43
-81.65
-85.87
-91.60
-100.40
-113.30
-130.14
-148.90
-165.47
-174.35
-170.28
-150.23
-115.04
-69.49
-20.92
23.26
57.87
81.14
94.25
99.97
101.03
99.17
95.23
89.70
83.36
77.42
73.16
71.40
72.06
74.19
76.39
77.38
76.54
74.07
70.71
67.25
64.10
60.99
57.22
51.97
44.73
35.57
25.10
14.38
4.52
-3.57
-9.53
-13.61
-16.68
-19.92
-24.41
-30.72
-38.66
-47.29
-55.40
-61.89
-66.30
-69.01
-71.05
-73.87
-78.96
-87.58
-100.35
-116.64
-134.11
-148.64
-155.07
-148.87
-127.94
-93.85
-51.61
-8.06
30.42
59.85
79.24
89.98
94.37
94.39
91.26
85.67
78.46
70.84
64.30
60.01
58.40
59.01
60.71
62.35
63.19
63.20
62.80
62.40
61.90
60.56
57.25
51.02
41.75
30.30
18.31
7.45
-1.15
-7.50
-12.54
-17.66
-23.98
-31.74
-40.25
-48.27
-54.57
-58.62
-60.88
-62.61
-65.60
-71.65
-82.01
-96.79
-114.37
-131.20
-142.32
-142.69
-129.02
-101.32
-63.21
-20.94
18.84
51.12
73.76
87.31
93.84
95.55
93.91
89.66
83.34
75.81
68.45
62.74
59.73
59.54
61.34
63.63
64.97
64.56
62.52
59.76
57.28
55.60
54.29
52.11
47.56
39.79
28.98
16.50
4.38
-5.53
-12.30
-16.33
-19.12
-22.59
-28.13
-36.06
-45.44
-54.57
-61.84
-66.46
-68.78
-70.16
-72.49
-77.55
-86.66
-100.30
-117.63
-136.10
-151.44
-158.40
-152.32
-131.03
-96.07
-52.62
-7.82
31.58
61.31
80.35
90.34
94.07
94.05
91.82
88.10
83.37
78.32
73.90
70.99
69.96
70.54
71.91
73.12
73.47
72.79
71.32
69.46
67.43
65.05
61.84
57.26
51.08
43.51
35.16
26.77
18.86
11.67
5.06
-1.19
-7.17
-12.70
-17.47
-21.25
-24.18
-26.89
-30.32
-35.34
-42.30
-50.80
-59.81
-68.05
-74.60
-79.29
-82.85
-86.76
-92.82
-102.69
-117.15
-135.36
-154.30
-168.91
-173.31
-162.71
-135.51
-94.38
-45.71
2.51
43.26
72.61
90.19
98.25
99.99
98.07
94.02
88.53
82.09
75.53
69.93
66.33
65.16
66.13
68.19
70.08
70.78
69.89
67.69
64.82
61.88
59.08
56.18
52.59
47.73
41.29
33.30
24.17
14.59
5.39
-2.62
-8.88
-13.24
-16.05
-18.18
-20.65
-24.38
-29.76
-36.50
-43.78
-50.54
-56.00
-59.92
-62.78
-65.62
-69.72
-76.40
-86.64
-100.70
-117.55
-134.35
-146.63
-149.29
-138.36
-112.76
-75.17
-31.46
11.30
47.09
72.69
87.96
94.83
95.85
92.96
87.31
79.65
71.00
62.82
56.63
53.43
53.19
54.91
57.04
58.24
57.97
56.58
54.93
53.72
52.97
51.79
48.85
42.96
33.85
22.36
10.22
-0.71
-9.15
-14.97
-19.13
-23.15
-28.34
-35.13
-42.95
-50.50
-56.46
-60.14
-61.91
-63.06
-65.51
-71.21
-81.57
-96.85
-115.50
-133.98
-147.21
-149.89
-138.35
-112.12
-74.49
-31.58
9.75
44.07
68.78
84.15
92.17
95.12
94.56
91.23
85.58
78.36
70.91
64.83
61.38
60.85
62.47
64.68
65.92
65.26
62.83
59.55
56.57
54.51
53.07
51.02
46.86
39.53
29.01
16.45
3.80
-6.93
-14.46
-18.72
-20.89
-22.82
-26.30
-32.26
-40.41
-49.43
-57.65
-63.75
-67.37
-69.23
-70.86
-74.13
-80.78
-92.01
-107.94
-127.00
-145.62
-158.54
-160.19
-146.61
-117.24
-75.61
-28.42
16.68
53.63
79.51
94.67
101.54
102.97
101.00
96.70
90.59
83.37
76.21
70.52
67.38
67.03
68.70
70.94
72.25
71.76
69.46
66.11
62.72
59.95
57.79
55.56
52.24
46.97
39.34
29.65
18.73
7.79
-1.97
-9.66
-14.99
-18.39
-20.89
-23.78
-28.19
-34.56
-42.50
-50.95
-58.65
-64.67
-68.87
-71.87
-74.94
-79.60
-87.29
-99.04
-114.93
-133.53
-151.46
-163.71
-164.84
-150.94
-121.41
-79.68
-32.36
12.95
50.14
76.21
91.50
98.39
99.72
97.55
92.90
86.32
78.54
70.90
65.00
62.06
62.29
64.73
67.64
69.31
68.79
66.30
62.93
59.96
58.04
56.74
54.72
50.39
42.75
31.97
19.37
6.99
-3.32
-10.59
-15.07
-18.08
-21.30
-26.10
-32.90
-41.03
-49.18
-55.97
-60.59
-63.18
-64.80
-67.03
-71.61
-79.99
-92.92
-109.97
-128.89
-145.57
-154.72
-151.36
-132.84
-100.19
-58.12
-13.61
26.50
57.59
78.19
89.47
93.95
94.01
91.19
86.30
79.87
72.66
65.75
60.19
56.70
55.39
55.74
56.90
58.04
58.60
58.33
57.21
55.17
51.98
47.29
40.82
32.69
23.42
13.79
4.44
-4.40
-12.96
-21.69
-30.87
-40.26
-49.15
-56.57
-61.85
-64.97
-66.78
-68.90
-73.26
-81.57
-94.63
-111.57
-129.45
-143.56
-148.53
-140.22
-117.37
-82.45
-41.01
0.19
35.33
61.20
77.40
85.57
88.01
86.63
82.62
76.71
69.67
62.47
56.09
51.20
47.90
45.80
44.19
42.51
40.52
38.30
36.02
33.66
30.75
26.56
20.29
11.55
0.57
-11.83
-24.61
-36.88
-48.27
-58.89
-69.11
-79.14
-88.78
-97.44
-104.35
-109.01
-111.43
-112.16
-112.25
-112.90
-115.22
-119.81
-126.29
-132.90
-136.45
-132.96
-118.86
-92.41
-54.54
-8.77
39.93
86.77
128.52
163.88
193.20
217.43
237.36
253.33
265.44
274.11
280.28
285.30
290.30
295.54
300.03
301.69
298.34
288.77
273.67
255.56
237.94
223.72
213.92
207.15
200.15
189.21
171.68
146.91
116.28
82.45
48.11
15.03
-16.39
-46.93
-77.76
-109.52
-141.70
-172.56
-199.63
-220.63
-234.40
-241.36
-243.59
-244.27
-246.85
-254.01
-266.53
-282.54
-297.48
-304.98
-298.51
-273.53
-229.14
-168.78
-99.56
-30.29
30.93
78.67
111.00
129.06
135.69
134.00
126.37
114.33
99.02
81.79
64.49
49.04
36.82
27.87
20.88
13.73
4.48
-7.79
-22.74
-39.04
-55.12
-69.91
-83.25
-95.73
-108.32
-121.71
-135.83
-149.78
-162.00
-170.83
-175.07
-174.42
-169.59
-162.21
-154.44
-148.55
-146.44
-149.03
-155.73
-164.14
-170.26
-169.26
-156.87
-130.76
-91.66
-43.43
7.86
55.57
94.33
121.29
136.39
141.58
139.71
133.39
124.53
114.42
104.21
95.21
88.79
85.96
86.72
89.92
93.62
95.89
95.51
92.35
87.14
81.06
75.01
69.30
63.57
57.00
48.69
38.07
25.23
11.07
-2.84
-14.80
-23.53
-28.67
-31.01
-32.22
-34.29
-39.15
-48.18
-62.07
-80.40
-101.17
-120.49
-133.10
-133.68
-118.93
-89.17
-48.74
-4.68
35.77
67.47
88.69
100.62
105.89
106.92
105.09
100.90
94.78
87.76
81.47
77.54
76.77
78.76
82.01
84.59
85.11
83.27
79.94
76.61
74.55
74.07
74.27
73.40
69.65
61.96
50.56
36.91
23.18
11.35
2.43
-3.87
-9.02
-14.94
-23.17
-34.16
-47.13
-60.51
-72.53
-82.11
-89.22
-94.85
-100.68
-108.67
-120.57
-137.33
-158.50
-181.57
-201.83
-213.14
-209.57
-187.57
-147.64
-94.70
-36.81
17.41
61.27
91.65
108.99
116.04
116.10
111.84
104.95
96.57
87.82
80.10
74.82
72.83
74.00
77.14
80.55
82.68
82.72
80.75
77.54
74.00
70.68
67.49
63.82
58.79
51.72
42.35
31.08
18.81
6.70
-4.10
-12.78
-19.04
-23.24
-26.26
-29.26
-33.28
-38.85
-45.78
-53.25
-60.18
-65.69
-69.61
-72.51
-75.55
-80.09
-87.54
-98.94
-114.58
-133.40
-152.40
-166.66
-170.30
-158.31
-128.82
-84.32
-31.37
21.40
66.09
97.93
116.08
122.77
121.49
115.31
106.20
95.27
83.52
72.35
63.34
57.73
55.81
56.72
58.92
60.90
61.76
61.40
60.14
58.27
55.57
51.41
45.12
36.51
26.14
15.11
4.62
-4.70
-12.98
-20.97
-29.54
-39.03
-48.98
-58.36
-65.99
-71.17
-74.03
-75.54
-77.32
-81.31
-89.25
-101.99
-118.64
-136.00
-148.85
-151.27
-138.73
-110.22
-69.06
-21.99
23.18
60.15
85.89
100.74
107.01
107.39
103.70
96.88
87.61
77.05
66.95
59.15
54.84
53.96
55.27
57.02
57.73
56.82
54.69
52.28
50.38
49.10
47.68
44.84
39.39
30.88
19.89
7.91
-3.22
-12.08
-18.25
-22.53
-26.54
-31.95
-39.61
-49.12
-59.00
-67.34
-72.75
-74.98
-75.08
-75.08
-77.42
-84.31
-97.02
-115.14
-136.12
-155.09
-165.83
-162.48
-141.78
-104.62
-56.22
-4.52
42.39
78.83
102.72
115.29
119.45
118.14
113.28
105.87
96.63
86.67
77.61
71.12
68.23
68.83
71.66
74.84
76.72
76.43
74.19
70.93
67.71
65.13
62.94
60.20
55.68
48.48
38.39
26.14
13.17
1.09
-8.80
-16.01
-21.02
-24.99
-29.35
-35.20
-42.88
-51.82
-60.91
-68.82
-74.74
-78.57
-81.12
-83.73
-88.09
-95.75
-107.81
-124.32
-143.69
-162.36
-175.01
-175.86
-160.65
-128.51
-82.88
-30.70
19.73
61.48
90.82
107.59
114.09
113.35
107.84
99.15
88.47
77.20
67.13
59.98
56.70
57.06
59.71
62.90
65.26
66.23
66.01
65.09
63.73
61.61
58.04
52.31
44.17
34.11
23.17
12.53
2.99
-5.39
-13.19
-21.25
-30.15
-39.76
-49.28
-57.59
-63.80
-67.76
-70.20
-72.66
-77.07
-85.32
-98.49
-116.04
-135.16
-150.86
-157.09
-148.80
-124.03
-85.11
-38.12
9.13
49.79
79.92
98.92
108.55
111.32
109.20
103.28
94.34
83.51
72.59
63.66
58.28
56.87
58.57
61.61
64.19
65.26
64.76
63.49
62.32
61.53
60.49
57.86
52.25
43.04
30.81
17.21
4.34
-6.13
-13.61
-18.79
-23.26
-28.79
-36.49
-46.32
-57.15
-67.25
-75.08
-79.96
-82.38
-83.82
-86.36
-92.15
-102.84
-118.86
-138.77
-158.86
-173.52
-176.57
-163.36
-132.75
-88.03
-36.17
14.46
56.86
87.31
105.72
114.49
116.65
114.52
109.29
101.68
92.65
83.79
77.02
73.73
74.17
77.28
81.20
84.18
85.35
84.86
83.61
82.48
81.69
80.60
77.97
72.68
64.26
53.31
41.31
30.09
21.08
14.76
10.52
7.01
2.74
-3.23
-10.87
-19.19
-26.73
-32.29
-35.56
-37.34
-39.24
-42.94
-49.48
-58.78
-69.73
-80.63
-90.02
-97.19
-102.49
-107.18
-113.07
-122.01
-135.33
-153.02
-173.18
-191.80
-203.34
-202.16
-184.38
-149.49
-101.01
-45.65
8.61
54.82
88.83
109.81
119.65
121.47
118.33
112.53
105.53
98.42
92.23
87.98
86.38
87.40
90.11
93.02
94.75
94.61
92.89
90.45
88.20
86.44
84.60
81.55
76.25
68.25
58.09
47.11
36.80
28.25
21.65
16.35
11.32
5.75
-0.53
-6.93
-12.54
-16.68
-19.39
-21.53
-24.48
-29.49
-37.06
-46.70
-57.11
-66.77
-74.64
-80.58
-85.38
-90.52
-97.68
-108.33
-123.17
-141.49
-160.64
-176.05
-182.01
-173.43
-147.91
-107.09
-56.64
-4.52
41.64
76.85
99.70
111.75
115.84
114.49
109.26
101.00
90.71
79.98
70.91
65.32
63.95
66.11
69.95
73.35
74.78
73.92
71.52
68.82
66.70
65.11
63.03
58.93
51.56
40.71
27.41
13.66
1.63
-7.24
-12.79
-16.21
-19.43
-24.23
-31.50
-40.84
-50.85
-59.78
-66.33
-70.23
-72.29
-74.12
-77.64
-84.61
-96.26
-112.74
-132.63
-152.46
-167.03
-170.62
-158.85
-130.65
-89.13
-40.77
6.65
46.63
75.67
93.67
102.77
105.73
104.64
100.65
94.38
86.67
78.88
72.66
69.34
69.29
71.76
75.14
77.69
78.23
76.62
73.57
70.19
67.33
65.04
62.61
58.81
52.54
43.38
31.80
19.10
6.95
-3.17
-10.45
-15.06
-18.04
-20.98
-25.39
-32.12
-41.04
-51.12
-60.90
-69.07
-75.13
-79.52
-83.48
-88.66
-96.65
-108.67
-125.06
-144.81
-165.03
-181.04
-187.23
-178.81
-153.78
-114.12
-65.59
-15.86
27.96
61.49
83.72
96.32
102.07
103.43
101.92
98.31
93.30
87.85
83.17
80.27
79.50
80.42
81.97
83.07
83.13
82.16
80.67
79.19
77.86
76.27
73.66
69.33
63.02
55.12
46.41
37.77
29.76
22.49
15.69
9.08
2.56
-3.58
-8.89
-13.11
-16.41
-19.55
-23.55
-29.29
-36.99
-46.07
-55.39
-63.76
-70.52
-75.75
-80.37
-85.77
-93.51
-104.94
-120.64
-139.68
-159.11
-174.04
-178.75
-168.64
-142.19
-102.08
-54.60
-7.53
32.39
61.54
79.76
89.33
93.23
93.66
91.71
87.75
82.26
76.35
71.58
69.30
70.08
73.30
77.46
80.81
82.13
81.14
78.48
75.25
72.36
70.04
67.75
64.41
58.97
50.93
40.55
28.93
17.60
7.98
0.89
-3.81
-7.11
-10.52
-15.36
-22.21
-30.66
-39.47
-47.16
-52.69
-55.96
-57.83
-59.86
-63.77
-71.06
-82.69
-98.73
-117.99
-137.57
-153.01
-159.15
-151.67
-128.95
-93.02
-49.29
-4.80
34.08
63.53
82.89
93.88
99.05
100.48
99.22
95.64
90.13
83.61
77.54
73.33
71.74
72.55
74.59
76.40
76.82
75.50
72.86
69.75
66.91
64.49
62.01
58.56
53.21
45.52
35.71
24.72
13.88
4.49
-2.66
-7.50
-10.77
-13.72
-17.66
-23.49
-31.36
-40.62
-50.10
-58.55
-65.15
-69.84
-73.38
-77.04
-82.35
-90.65
-102.87
-118.98
-137.55
-155.33
-167.47
-168.78
-155.40
-126.64
-85.70
-38.91
6.39
44.19
71.50
88.48
97.36
100.88
101.10
99.15
95.58
91.01
86.39
82.76
80.85
80.69
81.63
82.64
82.77
81.64
79.51
77.06
74.94
73.32
71.70
69.09
64.51
57.52
48.53
38.71
29.55
22.21
16.99
13.22
9.66
5.08
-1.03
-8.30
-15.61
-21.77
-26.10
-28.91
-31.32
-34.85
-40.65
-49.00
-59.16
-69.69
-79.02
-86.14
-90.97
-94.38
-97.99
-103.68
-113.09
-126.96
-144.45
-162.63
-176.64
-180.76
-170.33
-143.67
-103.18
-54.88
-6.47
35.19
66.06
85.52
95.54
99.09
98.71
95.97
91.65
86.35
80.96
76.54
73.94
73.42
74.47
76.03
76.97
76.56
74.74
71.98
68.98
66.18
63.59
60.75
57.02
51.96
45.43
37.69
29.18
20.36
11.69
3.54
-3.67
-9.54
-13.85
-16.72
-18.79
-21.08
-24.63
-30.02
-37.11
-45.00
-52.51
-58.69
-63.21
-66.57
-69.86
-74.41
-81.55
-92.28
-106.76
-123.78
-140.30
-151.70
-152.88
-140.13
-112.84
-74.15
-30.16
12.14
47.13
72.02
86.92
93.79
95.01
92.40
87.07
79.89
71.88
64.45
58.95
56.16
55.93
57.28
58.78
59.28
58.38
56.53
54.63
53.35
52.62
51.48
48.54
42.60
33.42
21.93
9.88
-0.86
-9.08
-14.76
-18.97
-23.26
-28.97
-36.44
-45.00
-53.21
-59.66
-63.56
-65.25
-65.99
-67.65
-72.15
-80.93
-94.39
-111.32
-128.58
-141.37
-144.45
-133.88
-108.75
-71.90
-29.20
12.43
47.27
72.34
87.58
94.83
96.43
94.18
89.16
82.10
73.96
66.11
59.95
56.38
55.39
56.04
56.94
56.87
55.34
52.76
50.08
48.16
47.15
46.29
44.19
39.47
31.57
21.01
9.32
-1.62
-10.37
-16.47
-20.70
-24.56
-29.62
-36.69
-45.45
-54.64
-62.59
-68.06
-70.80
-71.72
-72.54
-75.43
-82.29
-94.26
-110.98
-130.06
-147.03
-156.12
-152.11
-132.24
-97.79
-53.93
-8.09
32.64
63.69
83.90
94.85
99.19
99.26
96.46
91.45
84.92
77.88
71.66
67.36
65.41
65.42
66.41
67.29
67.29
66.21
64.29
62.03
59.74
57.37
54.52
50.68
45.47
38.88
31.25
23.09
14.85
6.86
-0.62
-7.34
-12.98
-17.36
-20.55
-23.13
-25.98
-30.05
-35.92
-43.48
-51.92
-60.10
-66.95
-71.96
-75.39
-78.26
-82.06
-88.47
-98.87
-113.85
-132.38
-151.36
-165.76
-169.77
-158.79
-131.43
-90.52
-42.50
4.75
44.43
72.85
89.81
97.58
99.22
97.18
92.86
86.94
80.07
73.25
67.68
64.28
63.34
64.33
66.19
67.80
68.35
67.61
65.85
63.54
61.06
58.42
55.28
51.15
45.58
38.50
30.14
21.07
11.98
3.55
-3.70
-9.49
-13.78
-16.87
-19.39
-22.16
-25.92
-31.14
-37.69
-44.90
-51.84
-57.69
-62.15
-65.59
-68.93
-73.40
-80.33
-90.80
-105.21
-122.64
-140.34
-153.77
-157.58
-147.41
-121.82
-83.31
-37.83
7.23
45.39
73.06
89.88
97.81
99.50
97.13
91.93
84.73
76.43
68.39
62.02
58.29
57.24
58.03
59.36
60.15
59.95
59.01
57.83
56.67
55.25
52.76
48.29
41.32
32.07
21.49
10.82
1.12
-7.20
-14.43
-21.28
-28.47
-36.18
-44.05
-51.27
-57.06
-61.06
-63.65
-65.86
-69.18
-75.18
-85.05
-98.96
-115.39
-130.95
-140.81
-140.11
-125.70
-97.66
-59.60
-17.61
21.84
53.86
76.30
89.65
95.86
97.10
94.89
90.18
83.66
76.34
69.49
64.30
61.40
60.58
60.88
61.04
60.20
58.25
55.85
53.96
53.17
53.15
52.69
50.23
44.55
35.56
24.33
12.72
2.53
-5.25
-10.86
-15.52
-20.79
-27.76
-36.49
-46.05
-54.91
-61.71
-65.86
-67.82
-68.96
-71.15
-76.31
-85.90
-100.31
-118.28
-136.49
-149.93
-153.08
-141.83
-115.25
-76.37
-31.38
12.46
49.20
75.82
92.41
100.99
104.08
103.52
100.28
94.96
88.37
81.71
76.30
73.06
72.11
72.78
73.93
74.53
74.16
73.01
71.66
70.60
69.78
68.52
65.85
60.99
53.82
45.05
35.88
27.51
20.58
15.00
10.00
4.66
-1.59
-8.69
-15.87
-22.11
-26.65
-29.45
-31.42
-34.04
-38.78
-46.35
-56.28
-67.15
-77.09
-84.69
-89.59
-92.66
-95.70
-100.88
-110.12
-124.32
-142.63
-162.07
-177.57
-183.06
-173.44
-146.53
-104.44
-53.23
-1.13
44.24
78.03
99.05
109.17
111.61
109.40
104.56
98.15
90.94
83.86
78.03
74.40
73.27
74.14
75.79
76.97
76.85
75.34
73.02
70.60
68.50
66.51
63.83
59.64
53.45
45.48
36.52
27.61
19.55
12.57
6.39
0.45
-5.56
-11.54
-16.98
-21.28
-24.25
-26.27
-28.32
-31.47
-36.44
-43.16
-50.89
-58.44
-64.84
-69.69
-73.37
-76.93
-81.81
-89.50
-101.10
-116.63
-134.41
-150.63
-159.93
-156.90
-138.13
-104.00
-58.97
-10.33
34.34
69.55
93.15
106.03
110.68
109.61
104.53
96.46
86.40
75.83
66.63
60.47
58.11
59.04
61.75
64.41
65.66
65.16
63.48
61.66
60.36
59.41
57.70
53.78
46.52
35.85
22.90
9.59
-2.11
-10.97
-16.95
-21.17
-25.36
-31.00
-38.68
-47.76
-56.70
-63.82
-68.07
-69.62
-69.79
-70.63
-74.26
-82.26
-95.20
-112.18
-130.48
-145.64
-152.28
-145.65
-123.56
-87.57
-42.96
2.98
43.35
73.73
93.05
102.87
105.87
104.34
99.62
92.39
83.40
73.94
65.72
60.24
58.12
58.81
60.78
62.30
62.18
60.27
57.36
54.65
52.97
52.21
51.25
48.46
42.47
32.90
20.63
7.50
-4.35
-13.41
-19.31
-23.00
-26.23
-30.78
-37.63
-46.57
-56.28
-64.97
-71.22
-74.65
-76.03
-77.02
-79.68
-85.87
-96.85
-112.78
-132.17
-151.51
-165.56
-168.52
-156.01
-126.95
-84.50
-35.25
12.88
53.32
82.60
100.61
109.55
112.18
110.65
106.15
99.35
91.07
82.56
75.28
70.35
68.13
68.05
68.90
69.36
68.58
66.40
63.29
60.08
57.35
55.22
53.18
50.39
45.99
39.49
30.92
20.83
10.18
0.00
-8.75
-15.53
-20.29
-23.60
-26.49
-30.18
-35.59
-42.93
-51.62
-60.39
-67.90
-73.21
-76.26
-77.84
-79.43
-82.77
-89.57
-100.99
-117.06
-136.01
-153.88
-165.03
-163.69
-146.15
-112.57
-67.47
-18.35
26.83
62.29
85.90
98.81
103.94
104.13
101.13
95.69
88.32
80.05
72.51
67.38
65.59
66.83
69.60
71.99
72.50
70.68
67.28
63.64
60.99
59.64
58.74
56.69
51.85
43.36
31.67
18.45
5.90
-4.13
-10.94
-15.19
-18.56
-22.90
-29.34
-37.82
-47.14
-55.58
-61.75
-65.17
-66.57
-67.56
-70.18
-76.34
-87.33
-103.25
-122.42
-141.21
-154.34
-156.23
-142.96
-113.99
-72.86
-26.18
18.50
55.14
80.82
95.76
102.21
102.87
99.74
93.91
86.15
77.39
69.07
62.69
59.17
58.51
59.72
61.29
61.97
61.27
59.59
57.82
56.63
55.91
54.65
51.42
45.05
35.42
23.57
11.34
0.61
-7.57
-13.41
-18.16
-23.50
-30.63
-39.67
-49.64
-58.93
-66.05
-70.35
-72.24
-73.13
-74.99
-79.83
-89.25
-103.67
-121.74
-139.87
-152.69
-154.42
-140.93
-111.65
-70.23
-23.53
20.76
56.67
81.56
96.09
102.87
104.67
103.24
99.23
92.90
84.92
76.70
70.00
66.20
65.70
67.72
70.73
73.13
73.91
72.94
70.77
68.19
65.72
63.34
60.49
56.38
50.35
42.18
32.12
20.92
9.58
-0.82
-9.41
-15.78
-20.14
-23.31
-26.49
-30.88
-37.15
-45.19
-54.10
-62.63
-69.65
-74.73
-78.29
-81.50
-85.97
-93.33
-104.87
-121.04
-140.78
-161.01
-176.74
-182.04
-171.96
-144.57
-102.23
-51.18
0.37
44.96
78.04
98.72
109.00
112.01
110.52
106.23
99.99
92.52
84.94
78.67
74.94
74.21
75.90
78.62
80.88
81.68
80.85
78.88
76.50
74.08
71.44
68.01
63.17
56.71
48.94
40.48
31.93
23.63
15.55
7.53
-0.44
-8.06
-14.77
-20.11
-24.09
-27.31
-30.85
-35.74
-42.44
-50.57
-59.11
-66.78
-72.78
-77.06
-80.45
-84.28
-90.15
-99.49
-113.14
-130.75
-150.14
-167.05
-175.79
-170.86
-149.09
-111.37
-62.79
-11.18
35.48
71.54
94.98
106.98
110.42
108.15
102.13
93.53
83.35
73.03
64.42
59.15
57.84
59.79
63.22
66.13
67.20
66.29
64.33
62.54
61.64
61.22
59.94
56.10
48.62
37.65
24.57
11.48
0.32
-7.95
-13.69
-18.25
-23.35
-30.19
-38.85
-48.35
-57.06
-63.51
-67.15
-68.60
-69.50
-72.05
-78.32
-89.65
-106.05
-125.61
-144.32
-156.71
-157.21
-142.18
-111.51
-69.10
-21.79
22.93
59.30
84.69
99.53
106.06
106.81
103.62
97.61
89.66
80.91
72.85
66.79
63.42
62.47
62.90
63.44
63.23
62.11
60.54
59.18
58.29
57.38
55.34
50.89
43.25
32.67
20.38
8.20
-2.34
-10.59
-17.02
-22.94
-29.70
-37.96
-47.34
-56.62
-64.38
-69.75
-72.84
-74.75
-77.29
-82.44
-91.88
-106.36
-125.04
-144.94
-161.02
-167.32
-158.84
-133.68
-94.25
-46.73
0.90
41.63
71.51
90.18
99.85
103.50
103.36
100.44
95.10
87.87
80.01
73.32
69.32
68.64
70.63
73.68
75.99
76.35
74.56
71.36
67.91
65.12
63.10
61.15
58.04
52.57
44.16
33.10
20.58
8.21
-2.45
-10.49
-15.94
-19.76
-23.49
-28.54
-35.71
-44.78
-54.63
-63.74
-70.86
-75.53
-78.34
-80.68
-84.39
-91.22
-102.47
-118.48
-138.06
-158.09
-173.55
-178.62
-168.51
-141.44
-99.89
-50.12
-0.22
42.63
74.20
93.96
104.00
107.34
106.36
102.32
95.85
87.79
79.62
73.23
70.10
70.53
73.43
76.80
78.68
78.04
75.15
71.29
67.92
65.86
64.77
63.32
59.78
52.92
42.59
29.84
16.58
4.81
-4.14
-10.09
-14.00
-17.50
-22.14
-28.73
-36.99
-45.73
-53.49
-59.21
-62.71
-64.85
-67.16
-71.42
-79.18
-91.41
-107.95
-126.99
-144.87
-156.45
-156.49
-141.53
-111.50
-70.27
-24.53
18.39
52.95
76.71
90.35
96.25
97.05
94.49
89.43
82.44
74.36
66.54
60.46
57.12
56.66
58.30
60.72
62.69
63.47
62.91
61.21
58.58
54.98
50.14
43.84
36.09
27.28
17.98
8.66
-0.50
-9.65
-18.98
-28.44
-37.57
-45.65
-52.02
-56.45
-59.30
-61.56
-64.58
-69.91
-78.89
-92.14
-108.88
-126.35
-140.02
-144.62
-136.00
-112.84
-77.58
-35.75
5.86
41.46
67.82
84.62
93.47
96.66
96.02
92.64
87.23
80.60
73.83
68.12
64.32
62.60
62.48
63.06
63.49
63.33
62.61
61.52
60.12
58.04
54.59
49.09
41.32
31.74
21.38
11.38
2.52
-5.15
-12.26
-19.73
-28.17
-37.55
-47.07
-55.55
-62.04
-66.24
-68.82
-71.27
-75.54
-83.50
-96.27
-113.39
-132.35
-148.60
-156.49
-151.12
-130.30
-95.69
-52.53
-7.94
31.54
61.83
82.04
93.69
99.20
100.64
99.12
95.16
89.30
82.55
76.33
71.96
70.17
70.76
72.69
74.54
75.08
73.73
70.75
66.99
63.41
60.54
58.19
55.49
51.29
44.71
35.57
24.52
12.91
2.24
-6.31
-12.33
-16.30
-19.42
-23.12
-28.49
-35.85
-44.65
-53.67
-61.63
-67.69
-71.82
-74.85
-78.13
-83.25
-91.64
-104.27
-121.13
-140.61
-159.08
-171.28
-171.59
-156.08
-124.38
-80.35
-31.03
15.65
53.50
79.68
94.78
101.51
102.91
101.16
97.33
91.90
85.54
79.33
74.56
72.18
72.28
74.09
76.31
77.69
77.53
75.83
73.12
70.03
66.96
63.84
60.20
55.49
49.30
41.52
32.45
22.70
13.10
4.48
-2.58
-7.84
-11.59
-14.58
-17.76
-22.04
-27.92
-35.28
-43.45
-51.39
-58.19
-63.40
-67.23
-70.48
-74.29
-79.96
-88.66
-101.20
-117.41
-135.51
-151.72
-160.77
-157.39
-138.39
-104.35
-59.94
-12.45
30.62
64.05
86.05
97.88
102.27
101.77
97.91
91.39
82.82
73.38
64.83
58.90
56.51
57.32
59.87
62.30
63.24
62.37
60.42
58.50
57.35
56.68
55.21
51.33
43.94
33.15
20.38
7.79
-2.64
-9.96
-14.62
-18.11
-22.22
-28.07
-35.64
-43.79
-50.87
-55.56
-57.55
-57.66
-57.60
-59.34
-64.65
-74.60
-89.10
-106.47
-123.14
-134.10
-134.16
-119.75
-90.58
-50.16
-4.84
38.29
73.70
98.75
113.72
120.61
121.75
118.83
112.91
105.00
96.50
89.20
84.66
83.46
84.88
87.05
87.76
85.50
80.10
72.70
64.99
58.18
52.30
46.20
38.24
27.26
13.40
-1.93
-16.67
-29.06
-38.50
-45.69
-52.20
-59.57
-68.51
-78.55
-88.30
-96.07
-100.70
-102.13
-101.46
-100.68
-102.19
-108.21
-120.08
-137.58
-158.22
-177.13
-187.92
-184.41
-163.03
-124.49
-74.08
-20.13
28.84
66.74
91.35
103.96
107.75
105.86
100.38
92.29
82.30
71.61
62.01
55.37
52.72
53.81
57.07
60.38
62.00
61.31
58.92
56.25
54.59
54.42
54.98
54.61
51.44
44.31
33.38
20.12
6.85
-4.30
-12.18
-17.17
-20.85
-25.29
-32.07
-41.49
-52.50
-63.19
-71.65
-76.80
-78.84
-79.16
-79.77
-82.81
-90.07
-102.48
-119.65
-139.22
-156.77
-166.37
-162.21
-140.85
-102.96
-53.69
-1.22
45.99
81.88
104.26
114.53
116.00
112.01
104.81
95.53
84.95
74.12
64.53
57.65
54.20
53.88
55.47
57.48
58.78
58.88
57.90
56.14
53.70
50.34
45.58
39.10
30.97
21.71
12.01
2.42
-6.92
-16.25
-25.93
-36.06
-46.23
-55.52
-62.89
-67.65
-69.86
-70.50
-71.19
-73.92
-80.45
-91.73
-107.18
-124.16
-138.07
-143.37
-135.41
-112.33
-76.24
-32.74
10.90
48.24
75.53
92.26
100.20
101.84
99.03
92.70
83.37
71.98
60.31
50.60
44.71
43.28
45.34
48.76
51.16
50.98
48.05
43.49
38.98
35.79
34.03
32.56
29.49
23.09
12.63
-1.26
-16.69
-31.30
-43.07
-51.11
-55.84
-58.74
-61.76
-66.76
-75.08
-87.27
-102.77
-119.52
-133.81
-140.85
-136.18
-117.36
-85.43
-44.90
-2.42
35.44
64.36
83.09
92.95
96.34
95.27
90.80
83.32
73.44
62.55
52.76
46.11
43.72
45.19
48.77
52.11
53.23
51.40
47.21
42.16
37.71
34.51
32.01
28.69
22.81
13.22
-0.05
-15.73
-31.71
-45.85
-56.68
-63.87
-68.26
-71.48
-75.44
-81.98
-92.36
-106.79
-123.85
-140.16
-150.79
-150.56
-135.93
-106.66
-66.36
-21.48
20.85
55.15
79.00
92.96
99.34
100.64
98.53
93.70
86.49
77.62
68.47
60.78
56.01
54.66
56.05
58.56
60.33
60.00
57.11
52.16
46.16
40.08
34.37
28.77
22.43
14.36
3.86
-9.01
-23.38
-37.67
-50.20
-59.76
-66.01
-69.63
-72.01
-74.80
-79.51
-87.33
-98.88
-113.85
-130.43
-145.01
-152.63
-148.36
-129.20
-95.72
-52.33
-6.01
36.00
68.59
89.99
101.48
105.93
106.16
103.89
99.75
93.96
87.03
80.07
74.42
71.11
70.37
71.50
73.22
74.18
73.48
70.80
66.46
60.97
54.88
48.50
41.90
34.93
27.27
18.60
8.71
-2.31
-14.02
-25.63
-36.24
-45.13
-51.97
-56.97
-60.80
-64.44
-69.10
-76.10
-86.61
-101.01
-118.10
-134.57
-145.34
-145.03
-130.02
-100.26
-59.71
-15.18
26.10
58.85
80.98
93.40
98.64
99.20
96.67
91.72
84.77
76.58
68.52
62.12
58.57
58.17
60.27
63.49
66.28
67.43
66.38
63.25
58.58
52.99
46.91
40.46
33.40
25.39
16.09
5.43
-6.32
-18.44
-29.94
-39.82
-47.44
-52.74
-56.32
-59.25
-62.82
-68.28
-76.72
-88.74
-104.00
-120.60
-134.80
-141.61
-136.29
-116.30
-82.72
-40.39
3.61
42.42
71.54
89.84
98.87
101.37
99.71
95.21
88.45
80.01
70.98
62.86
57.05
54.24
54.13
55.65
57.49
58.56
58.35
56.76
53.97
50.08
45.12
39.09
32.02
24.12
15.60
6.63
-2.77
-12.67
-23.04
-33.57
-43.58
-52.29
-59.07
-63.75
-66.79
-69.18
-72.30
-77.69
-86.71
-99.98
-116.61
-133.61
-146.10
-148.49
-136.47
-108.99
-69.09
-23.16
21.27
58.06
84.19
99.91
107.55
109.78
108.42
104.28
97.73
89.50
80.95
73.75
69.25
67.83
68.84
70.83
72.32
72.33
70.68
67.88
64.72
61.71
58.86
55.59
51.01
44.32
35.25
24.17
12.10
0.45
-9.45
-16.77
-21.47
-24.35
-26.74
-30.06
-35.23
-42.33
-50.55
-58.61
-65.20
-69.61
-72.06
-73.56
-75.69
-80.18
-88.54
-101.71
-119.54
-140.13
-159.48
-171.89
-171.44
-154.09
-119.66
-72.47
-20.22
28.57
67.32
93.13
106.77
111.21
109.71
104.53
96.79
87.16
76.74
67.25
60.51
57.68
58.57
61.66
64.81
66.25
65.29
62.53
59.28
56.76
55.27
54.02
51.47
46.16
37.46
25.95
13.31
1.60
-7.58
-13.73
-17.58
-20.72
-24.84
-30.91
-38.78
-47.29
-54.85
-60.17
-62.85
-63.56
-63.77
-65.30
-69.87
-78.75
-92.31
-109.44
-127.15
-140.68
-144.50
-134.23
-108.48
-69.94
-24.74
19.52
56.36
82.27
97.13
103.13
103.03
98.89
91.70
82.01
70.61
59.01
49.07
42.37
39.54
40.10
42.73
45.87
48.30
49.37
48.96
47.15
44.01
39.52
33.67
26.55
18.42
9.66
0.56
-8.72
-18.13
-27.66
-37.05
-45.86
-53.48
-59.36
-63.31
-65.63
-67.22
-69.37
-73.68
-81.53
-93.49
-108.49
-123.34
-133.14
-132.66
-118.29
-89.82
-50.89
-7.97
31.87
63.31
84.11
94.98
98.31
96.57
91.43
83.69
73.94
63.10
52.63
44.12
38.73
36.77
37.66
40.21
43.13
45.40
46.46
46.11
44.29
40.97
36.11
29.79
22.26
13.99
5.39
-3.30
-12.11
-21.20
-30.57
-39.94
-48.69
-56.11
-61.77
-65.71
-68.54
-71.27
-75.17
-81.52
-91.27
-104.38
-119.14
-131.83
-137.40
-131.10
-110.47
-76.78
-34.92
8.12
45.74
73.74
91.11
99.32
100.79
97.64
91.20
82.39
72.25
62.33
54.27
49.24
47.43
48.01
49.53
50.66
50.70
49.70
48.16
46.54
44.78
42.28
38.19
31.93
23.58
13.96
4.23
-4.65
-12.34
-19.27
-26.29
-34.13
-42.89
-51.92
-60.11
-66.38
-70.22
-71.99
-72.82
-74.36
-78.45
-86.57
-99.22
-115.13
-130.84
-141.15
-140.59
-125.46
-95.65
-55.07
-10.44
31.01
63.93
86.15
98.40
102.93
101.97
96.99
88.86
78.50
67.41
57.56
50.65
47.48
47.58
49.55
51.75
53.05
53.19
52.59
51.82
51.05
49.80
47.14
42.21
34.73
25.28
15.08
5.42
-2.91
-9.95
-16.45
-23.41
-31.40
-40.21
-48.90
-56.21
-61.19
-63.65
-64.37
-64.84
-66.92
-72.40
-82.46
-97.02
-114.05
-129.51
-138.00
-134.40
-115.92
-83.56
-42.14
1.26
39.69
68.56
86.53
94.99
96.56
93.62
87.60
79.19
69.07
58.39
48.79
41.91
38.76
39.33
42.56
46.78
50.29
51.89
51.12
48.23
43.92
38.88
33.56
27.92
21.59
14.02
4.82
-5.97
-17.76
-29.57
-40.22
-48.85
-55.10
-59.20
-61.88
-64.09
-66.82
-71.14
-78.09
-88.35
-101.58
-115.66
-126.65
-129.65
-120.50
-97.69
-63.31
-22.69
17.43
51.22
75.44
89.78
96.02
96.55
93.19
86.96
78.45
68.43
58.26
49.59
43.83
41.60
42.53
45.43
48.81
51.46
52.62
52.06
49.81
45.95
40.58
33.85
26.06
17.62
8.88
0.02
-9.02
-18.42
-28.14
-37.85
-46.90
-54.60
-60.47
-64.46
-67.03
-69.06
-71.71
-76.34
-84.31
-96.37
-111.86
-128.04
-140.13
-142.61
-131.15
-104.69
-66.20
-21.99
20.55
55.46
79.86
94.02
100.19
100.91
97.92
92.12
84.12
74.95
66.18
59.44
55.71
54.88
55.86
57.17
57.73
57.25
56.19
55.19
54.54
53.75
51.76
47.37
39.94
29.76
18.03
6.45
-3.50
-11.15
-16.92
-22.00
-27.78
-35.07
-43.67
-52.51
-60.14
-65.51
-68.51
-70.07
-71.86
-75.80
-83.60
-96.11
-112.76
-131.06
-146.57
-153.78
-147.86
-126.50
-91.25
-47.29
-1.77
38.56
69.41
89.67
100.66
104.76
104.05
99.83
92.88
84.16
75.15
67.63
63.08
61.98
63.61
66.39
68.52
68.79
67.04
63.96
60.70
58.08
56.17
54.16
50.77
44.90
36.17
25.23
13.57
2.98
-5.19
-10.56
-13.93
-16.89
-21.08
-27.45
-35.71
-44.63
-52.56
-58.25
-61.51
-63.25
-65.12
-68.93
-76.24
-87.89
-103.73
-122.07
-139.47
-151.05
-151.66
-137.75
-109.00
-68.94
-23.99
18.65
53.41
77.68
91.82
97.94
98.42
94.96
88.60
80.23
71.08
62.80
56.87
54.01
53.98
55.68
57.81
59.39
60.09
60.04
59.46
58.27
55.98
51.93
45.74
37.55
28.13
18.51
9.54
1.52
-5.86
-13.25
-21.15
-29.61
-38.08
-45.70
-51.70
-55.82
-58.51
-60.82
-64.19
-70.15
-79.93
-93.80
-110.51
-126.80
-137.87
-138.59
-125.45
-98.18
-60.30
-18.06
21.69
53.74
75.90
88.76
94.56
95.59
93.36
88.61
81.88
74.13
66.76
61.20
58.22
57.64
58.51
59.55
59.87
59.29
58.17
57.01
55.89
54.26
51.13
45.59
37.38
27.14
16.21
6.11
-2.21
-8.68
-14.11
-19.74
-26.55
-34.73
-43.61
-51.97
-58.64
-63.08
-65.69
-67.71
-70.94
-77.31
-88.25
-103.94
-122.66
-140.48
-151.99
-151.69
-136.21
-105.80
-64.68
-19.74
21.83
54.85
77.39
90.45
96.58
98.17
96.63
92.43
85.88
77.85
69.91
63.85
60.93
61.32
64.00
67.28
69.51
69.84
68.37
65.94
63.52
61.62
60.06
57.98
54.31
48.26
39.61
28.95
17.46
6.57
-2.45
-8.93
-13.06
-15.80
-18.64
-22.92
-29.34
-37.61
-46.62
-54.97
-61.59
-66.20
-69.39
-72.34
-76.48
-83.23
-93.76
-108.54
-126.80
-145.78
-160.74
-165.95
-156.61
-131.00
-91.61
-44.62
2.12
41.88
70.90
88.94
98.16
101.42
100.92
97.75
92.39
85.46
78.10
71.84
67.97
67.02
68.44
70.91
72.89
73.30
71.86
69.08
65.81
62.74
60.02
57.17
53.44
48.16
41.10
32.55
23.14
13.69
4.95
-2.51
-8.41
-12.82
-16.18
-19.27
-22.95
-27.85
-34.13
-41.31
-48.51
-54.84
-59.76
-63.38
-66.40
-69.94
-75.26
-83.59
-95.77
-111.69
-129.66
-146.07
-155.82
-153.80
-136.81
-105.20
-63.18
-17.56
24.52
57.89
80.49
93.09
98.01
97.62
93.54
86.76
78.19
69.18
61.35
56.15
54.17
54.98
57.29
59.61
60.93
61.05
60.45
59.74
59.10
58.02
55.44
50.29
42.17
31.64
20.06
9.07
-0.12
-7.22
-12.90
-18.38
-24.82
-32.62
-41.31
-49.80
-56.82
-61.65
-64.44
-66.21
-68.58
-73.35
-82.00
-95.16
-111.88
-129.25
-142.63
-146.74
-137.43
-113.48
-77.43
-34.97
6.95
42.48
68.48
84.76
93.15
95.91
94.76
90.59
84.04
76.10
68.27
62.18
58.90
58.46
59.80
61.39
61.95
61.07
59.25
57.41
56.20
55.41
54.04
50.65
44.25
34.82
23.50
12.08
2.23
-5.28
-10.85
-15.83
-21.77
-29.59
-39.18
-49.34
-58.41
-64.98
-68.58
-69.95
-70.79
-73.29
-79.53
-90.81
-106.96
-125.79
-143.04
-153.17
-150.93
-133.34
-101.15
-58.97
-13.84
27.12
59.00
80.14
91.82
96.65
97.13
94.74
90.07
83.54
76.02
68.93
63.76
61.42
61.84
63.98
66.28
67.37
66.53
63.97
60.47
56.94
53.95
51.39
48.56
44.50
38.45
30.19
20.25
9.76
0.07
-7.66
-12.93
-16.07
-18.14
-20.62
-24.78
-31.19
-39.43
-48.30
-56.28
-62.28
-66.12
-68.61
-71.29
-75.93
-84.05
-96.62
-113.62
-133.50
-152.85
-166.60
-169.26
-156.76
-128.32
-87.24
-40.08
5.53
43.45
70.63
87.23
95.48
97.93
96.40
91.85
84.99
76.95
69.40
64.10
62.16
63.44
66.62
69.70
70.98
69.79
66.61
62.78
59.64
57.82
56.80
55.21
51.46
44.56
34.59
22.80
11.06
1.15
-5.97
-10.53
-13.81
-17.49
-22.94
-30.56
-39.67
-48.80
-56.41
-61.58
-64.37
-65.79
-67.39
-70.88
-77.78
-89.05
-104.59
-122.64
-139.53
-150.11
-149.23
-133.63
-103.55
-62.98
-18.58
22.67
55.58
78.08
90.90
96.29
96.63
93.51
87.84
80.38
72.25
64.89
59.66
57.20
57.19
58.49
59.75
60.06
59.30
57.98
56.73
55.70
54.27
51.35
45.93
37.73
27.47
16.57
6.54
-1.75
-8.38
-14.25
-20.49
-27.78
-35.96
-44.18
-51.26
-56.38
-59.46
-61.25
-63.14
-66.88
-74.13
-85.90
-101.90
-119.88
-135.59
-143.65
-139.23
-119.99
-87.33
-46.19
-3.44
34.46
63.39
82.33
92.67
96.77
96.73
93.75
88.46
81.48
73.88
67.10
62.43
60.51
61.07
63.09
65.27
66.63
66.77
65.84
64.26
62.31
59.95
56.84
52.55
46.86
39.84
31.83
23.26
14.61
6.25
-1.42
-8.09
-13.52
-17.70
-20.95
-23.90
-27.38
-32.06
-38.24
-45.64
-53.48
-60.82
-66.93
-71.68
-75.63
-79.88
-85.83
-94.79
-107.63
-124.28
-143.05
-160.32
-170.89
-169.33
-151.95
-118.63
-73.41
-23.49
23.22
60.66
86.21
100.62
106.63
107.20
104.33
99.03
91.93
84.05
76.84
71.80
69.79
70.58
72.93
75.22
76.19
75.44
73.46
71.15
69.23
67.70
65.76
62.24
56.16
47.37
36.69
25.65
15.88
8.45
3.45
0.02
-3.15
-7.25
-12.70
-19.12
-25.43
-30.52
-33.78
-35.51
-36.86
-39.35
-44.18
-51.67
-61.11
-71.10
-80.20
-87.56
-93.28
-98.33
-104.19
-112.45
-124.28
-139.95
-158.27
-176.18
-188.90
-190.99
-178.19
-149.30
-107.23
-58.39
-10.63
29.35
57.97
75.23
83.69
86.69
86.88
85.62
83.38
80.45
77.55
75.81
76.25
79.26
84.23
89.69
93.94
95.70
94.56
91.13
86.50
81.64
76.89
71.82
65.67
57.87
48.61
38.92
30.37
24.43
21.87
22.38
24.68
27.01
27.71
25.84
21.46
15.53
9.44
4.51
1.40
-0.04
-0.64
-1.58
-4.00
-8.74
-16.22
-26.34
-37.97
-48.73
-54.97
-52.53
-38.12
-10.73
27.64
72.34
117.51
157.92
190.14
212.72
225.55
228.85
222.74
207.54
184.41
155.83
125.35
96.64
72.48
53.93
40.44
30.38
22.01
14.16
6.44
-0.90
-7.51
-13.34
-18.76
-24.52
-31.36
-39.78
-49.74
-60.69
-71.77
-82.12
-91.23
-99.20
-106.65
-114.42
-123.14
-132.89
-143.18
-153.13
-161.85
-168.79
-174.03
-178.22
-182.66
-189.07
-199.17
-213.94
-232.73
-252.63
-268.72
-275.15
-267.02
-241.75
-200.03
-145.45
-83.66
-21.10
36.08
82.87
116.02
134.47
139.41
133.91
122.08
108.08
95.20
85.44
79.49
77.08
77.22
78.54
79.58
79.18
76.83
72.75
67.68
62.37
57.15
51.76
45.50
37.67
28.11
17.38
6.71
-2.59
-9.61
-14.35
-17.75
-21.31
-26.41
-33.66
-42.62
-52.04
-60.37
-66.50
-70.30
-72.70
-75.44
-80.62
-90.08
-104.69
-123.64
-144.03
-160.88
-168.19
-160.62
-135.64
-94.86
-44.00
8.79
55.51
90.72
112.74
123.13
125.18
122.09
116.04
108.15
99.19
90.22
82.73
78.13
76.97
78.58
81.12
82.49
81.28
77.34
71.79
66.28
62.06
59.20
56.59
52.48
45.41
35.01
22.31
9.29
-1.94
-10.03
-14.96
-17.97
-20.97
-25.65
-32.72
-41.64
-50.91
-58.75
-63.93
-66.33
-67.00
-67.82
-70.98
-78.35
-90.97
-108.55
-128.91
-147.95
-160.04
-159.52
-142.66
-109.39
-63.90
-13.58
33.36
70.56
95.13
107.76
111.36
109.21
103.71
96.13
87.12
77.51
68.55
61.64
57.73
56.87
58.18
60.26
61.83
62.11
60.97
58.64
55.36
51.10
45.57
38.49
29.83
19.95
9.51
-0.86
-10.84
-20.52
-30.09
-39.63
-48.79
-56.87
-63.12
-67.22
-69.48
-70.96
-73.24
-78.09
-87.07
-100.80
-118.29
-136.39
-150.00
-153.32
-141.90
-114.60
-74.42
-27.76
17.77
55.86
83.22
99.82
107.71
109.48
107.07
101.64
93.98
85.15
76.65
70.00
66.16
65.07
65.74
66.74
66.93
65.93
64.16
62.38
61.06
59.87
57.72
53.25
45.53
34.69
22.01
9.43
-1.31
-9.44
-15.45
-20.83
-27.20
-35.52
-45.56
-56.03
-65.17
-71.62
-75.08
-76.49
-77.75
-81.22
-89.03
-102.34
-120.61
-141.08
-158.83
-167.72
-162.22
-139.61
-101.26
-52.74
-2.00
43.19
77.66
99.89
111.44
115.38
114.52
110.60
104.40
96.54
88.10
80.60
75.56
73.72
74.64
76.83
78.47
78.23
75.79
71.90
67.85
64.73
62.78
61.23
58.62
53.53
45.13
33.67
20.43
7.32
-3.85
-11.99
-17.15
-20.46
-23.69
-28.44
-35.45
-44.30
-53.54
-61.44
-66.78
-69.45
-70.56
-71.97
-75.71
-83.41
-95.94
-113.00
-132.81
-151.79
-164.85
-166.44
-152.48
-122.08
-78.46
-28.33
20.29
60.63
89.02
105.39
112.04
112.06
107.91
101.04
92.43
83.17
74.78
68.84
66.26
66.82
69.11
71.21
71.58
69.76
66.43
62.94
60.37
58.86
57.42
54.41
48.45
39.18
27.53
15.37
4.59
-3.78
-10.01
-15.48
-21.94
-30.47
-40.92
-52.01
-61.86
-68.99
-72.94
-74.53
-75.53
-78.16
-84.40
-95.49
-111.24
-129.51
-146.11
-155.44
-152.13
-133.04
-98.90
-54.47
-7.12
35.62
68.54
89.90
101.01
104.67
103.64
99.65
93.62
86.32
78.87
72.78
69.28
68.80
70.66
73.37
75.41
75.91
74.97
73.37
71.92
70.79
69.32
66.21
60.31
51.22
39.65
27.14
15.45
5.78
-1.71
-7.88
-14.18
-21.88
-31.40
-42.16
-52.73
-61.55
-67.63
-71.03
-72.96
-75.42
-80.73
-90.83
-106.42
-126.29
-146.78
-162.23
-166.34
-154.34
-125.02
-81.70
-31.38
17.52
57.97
86.28
102.49
109.09
109.30
105.55
99.10
90.54
80.59
70.58
62.20
56.89
55.18
56.48
59.30
62.01
63.42
63.21
61.74
59.72
57.67
55.65
53.28
49.88
44.79
37.65
28.52
17.92
6.79
-3.73
-12.55
-19.02
-23.14
-25.64
-27.79
-30.93
-35.99
-43.12
-51.58
-60.15
-67.55
-73.02
-76.72
-79.61
-83.23
-89.31
-99.32
-113.98
-132.62
-152.68
-169.58
-177.48
-171.01
-147.26
-107.39
-56.75
-3.35
44.71
81.74
105.67
117.79
121.14
118.84
112.99
104.76
94.99
84.78
75.74
69.40
66.63
67.12
69.48
71.78
72.43
70.76
67.22
63.03
59.49
57.22
55.80
53.93
49.95
42.72
32.19
19.49
6.56
-4.62
-12.81
-17.97
-21.23
-24.29
-28.75
-35.38
-43.88
-53.02
-61.28
-67.43
-71.10
-72.94
-74.32
-76.99
-82.64
-92.53
-107.07
-125.22
-143.99
-158.55
-163.13
-152.93
-126.10
-85.06
-36.08
12.71
54.01
83.56
100.82
107.99
108.32
104.40
97.64
88.68
78.25
67.64
58.66
52.83
50.81
52.03
55.04
58.11
59.96
59.97
58.16
54.86
50.38
44.84
38.29
30.78
22.43
13.37
3.62
-6.84
-17.94
-29.38
-40.50
-50.50
-58.62
-64.52
-68.38
-70.93
-73.28
-76.78
-82.85
-92.59
-106.13
-121.81
-135.91
-143.19
-138.51
-118.95
-85.39
-42.66
2.01
41.46
70.95
89.19
97.82
99.77
97.66
92.95
86.08
77.36
67.60
58.27
50.99
46.92
46.20
47.93
50.57
52.54
52.82
51.04
47.55
42.97
37.90
32.62
27.01
20.64
12.97
3.62
-7.40
-19.57
-31.90
-43.26
-52.72
-59.86
-64.92
-68.68
-72.19
-76.64
-83.19
-92.80
-105.88
-121.52
-136.99
-147.80
-148.75
-135.86
-108.17
-68.69
-23.62
19.74
55.44
80.52
95.27
101.97
103.34
101.28
96.72
90.11
82.15
74.07
67.28
62.80
60.85
60.75
61.43
61.90
61.67
60.74
59.22
57.05
53.79
48.85
41.80
32.76
22.43
11.82
1.81
-7.22
-15.52
-23.75
-32.47
-41.78
-51.16
-59.66
-66.38
-70.93
-73.68
-75.81
-79.02
-85.15
-95.69
-110.95
-129.35
-147.10
-158.67
-158.34
-142.29
-110.36
-66.66
-18.32
26.85
62.93
87.39
101.02
106.48
106.68
103.58
98.15
90.99
82.97
75.41
69.65
66.44
65.52
65.80
65.93
65.00
62.93
60.31
57.87
55.83
53.73
50.48
45.02
36.90
26.58
15.31
4.61
-4.46
-11.66
-17.71
-23.76
-30.81
-39.10
-48.04
-56.43
-63.11
-67.53
-70.05
-71.94
-75.06
-81.37
-92.28
-107.88
-126.28
-143.39
-153.61
-151.48
-133.75
-100.97
-57.69
-11.11
31.35
64.48
86.42
98.30
102.78
102.38
98.69
92.39
84.03
74.65
65.85
59.28
55.99
55.95
58.17
61.10
63.31
63.88
62.55
59.49
55.09
49.66
43.44
36.50
28.84
20.43
11.17
1.02
-9.89
-21.14
-32.07
-41.85
-49.83
-55.74
-59.81
-62.75
-65.61
-69.60
-76.02
-85.94
-99.64
-115.92
-131.56
-141.71
-141.19
-126.45
-97.34
-57.55
-13.57
27.54
60.45
82.94
95.74
101.18
101.74
99.03
93.81
86.61
78.33
70.33
64.05
60.40
59.40
60.19
61.54
62.44
62.39
61.44
59.78
57.48
54.20
49.43
42.81
34.39
24.78
14.83
5.25
-3.73
-12.37
-21.16
-30.36
-39.72
-48.50
-55.79
-61.02
-64.31
-66.56
-69.26
-74.21
-82.98
-96.38
-113.69
-132.13
-147.00
-152.73
-144.67
-121.14
-84.37
-40.05
4.60
43.27
72.35
91.32
101.89
106.41
106.69
103.68
97.99
90.46
82.53
75.90
71.84
70.65
71.49
72.84
73.20
71.85
69.04
65.79
63.16
61.57
60.48
58.50
54.09
46.28
35.23
22.30
9.50
-1.28
-9.04
-14.05
-17.71
-21.87
-28.00
-36.41
-46.25
-55.83
-63.51
-68.42
-70.83
-72.11
-74.22
-79.17
-88.51
-102.85
-121.22
-140.63
-156.20
-162.09
-153.47
-128.43
-89.22
-41.85
5.89
46.97
77.31
96.27
105.81
108.79
107.52
103.25
96.59
88.23
79.41
71.75
66.65
64.66
65.28
67.11
68.62
68.70
67.11
64.31
61.10
58.12
55.50
52.81
49.30
44.23
37.18
28.24
17.98
7.40
-2.33
-10.23
-15.80
-19.25
-21.47
-23.79
-27.41
-32.98
-40.30
-48.42
-56.04
-62.10
-66.20
-68.77
-70.97
-74.26
-80.11
-89.75
-103.74
-121.41
-140.28
-155.98
-162.92
-156.08
-132.93
-94.99
-47.64
1.46
44.91
77.82
98.76
109.09
111.47
108.37
101.41
91.63
80.21
68.80
59.38
53.55
51.84
53.44
56.55
59.23
60.23
59.43
57.63
55.85
54.61
53.42
51.02
46.02
37.73
26.64
14.32
2.75
-6.53
-13.11
-17.81
-22.16
-27.65
-34.91
-43.43
-51.90
-58.80
-63.17
-65.00
-65.32
-65.81
-68.46
-75.03
-86.58
-102.69
-120.99
-137.01
-145.12
-140.25
-119.91
-85.52
-42.20
2.86
42.86
73.38
93.19
103.58
106.92
105.29
99.97
91.71
81.45
70.66
61.24
54.84
52.19
52.73
54.95
57.00
57.57
56.36
54.03
51.63
49.97
49.00
47.76
44.85
39.03
29.91
18.17
5.45
-6.30
-15.56
-21.81
-25.76
-28.99
-33.19
-39.39
-47.45
-56.18
-63.90
-69.25
-71.86
-72.48
-72.76
-74.72
-80.17
-90.34
-105.34
-123.65
-141.73
-154.40
-155.97
-142.23
-112.33
-69.55
-20.54
26.85
66.16
94.01
110.37
117.44
117.96
114.07
107.03
97.68
87.11
76.90
68.67
63.57
61.74
62.34
63.96
65.36
65.84
65.49
64.76
63.96
62.95
61.03
57.39
51.53
43.64
34.57
25.44
17.14
9.93
3.44
-3.01
-9.92
-17.22
-24.24
-30.03
-33.95
-36.08
-37.34
-39.13
-42.73
-48.68
-56.54
-65.08
-72.82
-78.72
-82.61
-85.29
-88.33
-93.64
-102.88
-116.92
-135.02
-154.32
-169.84
-175.48
-165.94
-138.76
-95.86
-43.36
10.27
56.91
91.28
111.91
120.63
120.81
115.67
107.36
97.11
85.89
74.95
65.87
59.99
57.86
58.94
61.80
64.78
66.65
66.92
65.85
64.03
61.92
59.57
56.64
52.56
46.90
39.52
30.68
20.96
11.04
1.54
-7.05
-14.46
-20.51
-25.16
-28.54
-31.04
-33.33
-36.20
-40.28
-45.70
-51.99
-58.27
-63.58
-67.47
-70.27
-72.97
-76.98
-83.75
-94.34
-109.00
-126.55
-143.94
-156.38
-158.34
-145.41
-116.27
-73.70
-24.09
24.64
65.58
94.79
111.79
118.55
117.83
111.86
102.10
89.63
75.92
62.97
52.89
47.06
45.55
47.14
49.87
52.01
52.73
52.30
51.56
51.18
51.05
50.14
46.98
40.46
30.49
18.18
5.45
-5.78
-14.44
-20.74
-25.94
-31.68
-39.05
-47.99
-57.36
-65.46
-70.92
-73.37
-73.60
-73.32
-74.59
-79.27
-88.55
-102.36
-118.98
-134.71
-144.45
-142.96
-126.83
-96.05
-54.50
-8.81
33.88
68.12
91.51
104.50
109.21
107.92
102.28
93.39
82.29
70.47
59.79
51.94
47.76
46.94
48.22
50.01
51.15
51.32
50.92
50.53
50.35
49.77
47.62
42.76
34.74
24.17
12.54
1.55
-7.60
-14.70
-20.46
-26.06
-32.45
-39.83
-47.62
-54.68
-59.91
-62.80
-63.67
-63.71
-64.81
-69.05
-78.20
-92.89
-111.80
-131.21
-145.44
-148.40
-135.75
-106.83
-65.29
-18.02
27.19
64.20
90.07
105.09
111.53
111.93
108.09
100.96
