1607668961.00
64.000000
-0.00
-0.00
-0.00
-0.00
-0.00
-0.00
-0.00
-0.00
-0.00
-0.00
0.00
0.01
0.01
-0.00
-0.03
-0.05
-0.05
0.00
0.13
0.36
0.66
1.01
1.37
1.72
2.06
2.40
2.79
3.24
3.80
4.42
5.06
5.66
6.20
6.68
7.15
7.68
8.31
9.14
10.09
11.04
11.88
12.56
13.14
13.76
14.65
15.96
17.91
20.32
22.90
25.38
27.58
29.57
31.68
34.32
37.81
42.54
48.15
54.10
59.83
64.97
69.58
74.14
79.34
85.71
93.76
103.00
112.62
121.73
129.77
136.75
143.30
150.75
157.77
166.64
177.95
191.79
206.97
220.57
228.25
225.36
208.53
176.87
132.76
80.05
23.07
-34.94
-92.44
-149.16
-205.23
-260.37
-313.74
-363.87
-409.83
-450.91
-486.50
-515.74
-537.23
-549.22
-549.96
-538.37
-514.21
-478.67
-433.88
-382.45
-327.02
-269.84
-212.63
-156.66
-102.95
-52.37
-5.90
35.58
71.43
101.35
125.50
144.38
158.69
169.15
176.37
180.75
182.58
182.07
179.50
175.23
169.65
163.19
156.19
148.86
141.33
133.65
125.85
118.00
110.19
102.55
95.18
88.13
81.39
74.92
68.66
62.61
56.77
51.24
46.07
41.34
37.03
33.07
29.35
25.76
22.25
18.89
15.80
13.13
10.98
9.34
8.02
6.74
5.26
3.47
1.50
-0.32
-1.61
-2.10
-1.84
-1.26
-0.94
-1.45
-3.01
-5.30
-7.61
-9.08
-9.14
-7.85
-5.91
-4.43
-4.39
-6.21
-9.41
-12.85
-15.14
-15.38
-13.52
-10.46
-7.63
-6.40
-7.66
-11.51
-17.20
-23.22
-27.33
-26.83
-19.17
-3.05
20.44
47.36
71.77
87.78
91.84
84.17
68.42
49.79
32.72
19.33
9.39
1.52
-5.35
-11.31
-15.73
-18.18
-19.11
-19.80
-21.63
-25.13
-29.61
-33.53
-35.32
-34.19
-30.58
-26.08
-22.71
-22.18
-25.18
-30.96
-37.37
-41.31
-39.72
-30.77
-14.77
5.63
26.32
43.11
53.29
56.46
54.27
49.34
43.98
39.51
36.19
33.79
32.02
30.74
29.88
29.30
28.75
27.84
25.94
22.26
15.81
6.21
-5.78
-18.15
-28.14
-33.39
-33.11
-28.62
-22.74
-18.37
-17.15
-18.85
-21.82
-24.03
-23.93
-20.97
-15.41
-8.00
0.21
7.91
13.78
16.70
16.30
13.36
9.64
7.14
7.26
9.92
13.59
15.99
15.13
10.34
2.59
-5.96
-12.82
-16.27
-16.00
-13.03
-9.21
-6.26
-5.10
-5.54
-6.61
-7.06
-5.76
-1.96
4.60
13.36
22.77
30.60
34.58
33.52
28.23
21.56
17.39
18.84
26.38
37.53
48.11
54.31
54.42
49.22
40.87
30.51
18.92
5.87
-9.33
-26.72
-44.86
-60.83
-71.06
-72.61
-64.33
-47.35
-25.36
-3.95
10.67
13.27
1.45
-23.25
-55.25
-86.39
-108.40
-115.75
-107.33
-86.43
-59.10
-31.81
-9.38
5.96
14.39
17.55
17.47
15.92
14.31
13.59
14.16
15.67
17.09
17.04
14.41
8.81
0.88
-7.92
-15.79
-21.21
-23.46
-22.79
-20.20
-17.14
-15.00
-14.79
-16.93
-21.09
-26.28
-30.93
-33.29
-31.90
-26.08
-16.25
-3.87
8.96
20.19
28.45
33.29
35.02
34.26
31.54
27.20
21.73
16.02
11.41
9.16
9.86
12.97
17.06
20.45
21.99
21.64
20.21
18.79
18.00
17.62
16.85
14.79
11.03
5.94
0.48
-4.32
-7.72
-9.65
-10.57
-11.14
-11.95
-13.47
-16.07
-20.15
-25.98
-33.46
-41.87
-49.94
-56.19
-59.40
-58.96
-54.83
-47.37
-37.12
-24.85
-11.69
0.83
11.01
17.53
19.95
18.92
15.93
12.65
10.36
9.48
9.55
9.54
8.44
5.88
2.46
-0.26
-0.35
3.62
11.69
22.26
32.52
39.61
41.82
39.23
33.48
26.97
21.82
19.22
19.28
21.36
24.39
27.24
29.03
29.74
30.41
32.98
39.65
51.91
69.65
90.58
110.63
125.08
130.50
126.00
113.55
96.91
80.00
65.33
53.06
41.33
27.50
10.36
-9.06
-27.88
-43.00
-52.72
-57.04
-57.92
-58.21
-60.98
-67.26
-76.33
-86.41
-95.90
-103.81
-108.95
-110.96
-110.68
-111.16
-114.05
-119.46
-125.97
-131.90
-135.84
-135.71
-130.56
-121.30
-112.17
-104.92
-99.13
-92.52
-82.97
-68.95
-47.78
-17.59
21.42
64.46
108.45
151.25
191.35
226.35
241.52
226.76
184.03
143.10
115.69
104.90
103.73
107.33
110.93
111.21
109.07
107.14
107.22
106.32
102.78
95.87
86.50
75.59
64.19
54.64
48.51
45.47
41.58
34.88
25.23
14.29
3.65
-5.43
-11.39
-13.47
-12.26
-10.75
-10.77
-13.13
-17.56
-23.66
-30.89
-38.19
-44.48
-48.99
-52.04
-53.56
-53.41
-51.42
-47.84
-43.13
-37.64
-31.66
-25.56
-20.03
-15.55
-12.41
-10.66
-10.11
-10.40
-11.06
-11.71
-12.26
-12.96
-14.28
-16.71
-20.51
-25.63
-31.73
-38.31
-44.76
-50.53
-55.06
-57.96
-58.98
-58.18
-55.89
-52.61
-48.87
-45.01
-41.18
-37.34
-33.45
-29.57
-25.81
-22.35
-19.29
-16.69
-14.53
-12.80
-11.45
-10.44
-9.67
-8.96
-8.14
-7.05
-5.61
-3.87
-2.02
-0.34
0.89
1.42
1.21
0.42
-0.66
-1.74
-2.64
-3.33
-3.94
-4.64
-5.50
-6.57
-7.83
-9.30
-10.99
-12.82
-14.57
-15.88
-16.33
-15.62
-13.67
-10.68
-7.03
-3.19
0.51
3.82
6.59
8.70
10.02
10.49
10.14
9.15
7.85
6.48
5.25
4.17
3.16
2.08
0.91
-0.35
-1.66
-3.05
-4.65
-6.60
-9.01
-11.81
-14.78
-17.57
-19.85
-21.34
-21.98
-21.81
-21.05
-19.96
-18.82
-17.83
-17.17
-16.95
-17.23
-17.99
-19.04
-20.05
-20.56
-20.17
-18.61
-15.91
-12.38
-8.46
-4.56
-1.01
2.08
4.69
6.79
8.30
9.10
9.07
8.22
6.66
4.64
2.43
0.27
-1.68
-3.33
-4.60
-5.44
-5.79
-5.56
-4.69
-3.10
-0.73
2.54
6.84
12.25
18.79
26.33
34.59
43.11
51.32
58.57
64.21
67.75
68.89
67.64
64.34
59.57
53.95
48.00
42.00
35.92
29.60
22.91
15.80
8.43
1.01
-6.23
-13.13
-19.54
-25.29
-30.12
-33.75
-35.92
-36.56
-35.82
-34.03
-31.54
-28.60
-25.31
-21.71
-17.85
-13.96
-10.38
-7.44
-5.32
-3.99
-3.27
-2.92
-2.78
-2.81
-3.05
-3.62
-4.59
-6.04
-7.99
-10.39
-13.04
-15.62
-17.66
-18.72
-18.48
-16.81
-13.84
-9.91
-5.43
-0.86
3.41
7.08
9.96
11.98
13.18
13.65
13.49
12.80
11.62
10.01
8.04
5.80
3.39
0.96
-1.39
-3.54
-5.36
-6.70
-7.46
-7.65
-7.47
-7.25
-7.35
-7.98
-9.20
-10.85
-12.69
-14.55
-16.33
-18.12
-20.06
-22.28
-24.80
-27.42
-29.67
-31.02
-31.04
-29.63
-27.02
-23.70
-20.15
-16.69
-13.38
-9.99
-6.38
-2.60
1.03
4.18
6.71
8.70
10.29
11.60
12.83
14.03
15.14
16.14
17.07
18.04
19.12
20.14
20.85
21.62
22.82
24.47
26.14
27.26
27.43
26.47
24.39
21.30
18.63
17.43
17.69
18.41
18.41
17.17
14.85
12.11
9.73
10.48
16.38
27.64
42.67
59.39
76.46
93.27
109.72
125.72
143.74
165.42
190.37
216.18
240.20
260.91
277.77
291.19
285.08
250.70
191.15
120.63
54.14
-0.27
-41.21
-71.22
-93.10
-108.82
-116.94
-116.61
-109.34
-99.19
-90.40
-85.43
-85.67
-90.28
-97.25
-102.29
-102.74
-98.94
-93.97
-91.84
-94.05
-102.58
-117.63
-137.90
-159.51
-178.62
-192.52
-200.23
-202.04
-191.51
-167.76
-135.60
-103.47
-77.21
-58.59
-46.34
-38.11
-31.67
-25.25
-20.49
-16.99
-13.99
-9.86
-3.46
5.77
17.63
31.54
46.89
62.36
77.14
90.66
103.12
112.12
115.01
110.56
100.02
86.24
71.22
57.86
45.72
34.96
26.19
20.38
18.20
19.17
21.92
23.85
22.40
15.80
4.47
-9.62
-23.47
-34.30
-40.64
-42.89
-42.95
-42.91
-44.13
-46.09
-47.31
-45.91
-40.68
-31.70
-20.30
-8.60
1.46
8.99
15.10
22.00
32.28
48.10
70.20
97.55
127.41
155.56
177.80
191.54
195.24
188.95
174.70
156.02
136.86
120.29
106.63
94.63
83.29
70.39
53.36
30.61
1.50
-33.95
-75.06
-121.62
-171.29
-217.84
-255.94
-282.77
-297.67
-302.15
-298.88
-290.02
-278.34
-264.58
-245.90
-222.14
-195.98
-170.34
-146.75
-124.89
-91.60
-43.23
0.65
33.53
58.78
78.87
97.41
118.40
143.99
173.51
200.62
218.79
226.25
222.92
210.06
189.80
164.50
135.97
106.40
75.46
43.72
14.41
-10.39
-30.46
-47.23
-61.86
-74.48
-83.11
-87.93
-89.97
-90.50
-91.99
-89.86
-82.14
-69.18
-61.26
-59.35
-63.46
-69.62
-75.56
-79.54
-80.31
-78.23
-74.30
-70.03
-65.68
-62.07
-59.13
-56.11
-51.48
-43.95
-33.93
-22.42
-10.61
1.48
13.59
25.70
37.40
48.72
59.87
70.69
81.33
92.20
101.48
106.31
104.93
97.83
87.64
76.88
66.43
56.06
45.16
33.66
22.21
13.09
6.68
3.17
2.42
3.60
5.60
7.30
7.92
7.30
5.78
3.93
1.07
-2.52
-6.29
-9.51
-11.54
-11.95
-10.48
-7.06
-2.17
3.54
9.40
14.62
18.60
20.97
21.72
21.13
19.65
17.54
14.97
12.05
8.62
4.39
-0.91
-7.37
-14.65
-21.91
-28.03
-31.86
-32.52
-29.76
-23.89
-15.43
-4.89
7.41
21.10
35.68
50.40
64.59
77.77
89.88
101.00
111.08
119.59
125.61
128.25
127.16
122.92
116.87
110.61
105.40
101.81
99.73
98.42
96.73
92.86
84.51
69.34
45.77
14.08
-23.03
-60.81
-94.07
-119.16
-135.48
-145.29
-152.11
-158.85
-166.76
-175.37
-183.38
-189.83
-194.39
-197.26
-198.37
-196.78
-191.12
-180.36
-164.32
-143.44
-118.42
-89.83
-58.60
-26.42
4.35
30.68
49.77
60.13
62.65
59.79
56.20
56.00
59.72
66.03
73.34
80.68
87.29
92.61
96.16
97.59
96.58
93.23
88.60
84.17
81.12
79.62
78.71
76.49
71.04
61.01
46.34
28.66
10.68
-4.72
-15.40
-20.60
-21.21
-19.37
-17.87
-19.07
-23.97
-31.85
-40.61
-47.57
-50.54
-48.62
-42.52
-34.22
-26.09
-20.17
-17.03
-15.64
-14.03
-10.51
-4.55
3.10
10.86
17.09
20.15
19.38
15.41
9.87
4.75
2.29
4.66
13.20
27.32
42.66
53.02
52.85
39.65
14.72
-17.08
-48.92
-74.50
-90.28
-97.68
-100.45
-102.02
-103.80
-105.97
-108.34
-110.80
-113.84
-109.77
-95.14
-73.12
-50.89
-32.98
-20.00
-10.57
-3.16
3.25
9.42
14.77
19.18
22.68
27.45
34.30
42.40
50.53
57.57
62.83
64.81
62.56
55.03
44.36
34.39
29.49
32.99
44.86
61.02
74.10
77.55
69.18
52.45
34.94
21.36
14.03
12.08
12.34
10.96
5.75
-2.93
-12.63
-21.03
-27.14
-30.97
-33.46
-34.84
-35.39
-35.65
-36.32
-37.71
-39.82
-42.39
-44.75
-46.33
-46.69
-45.65
-43.14
-38.97
-32.72
-24.56
-14.86
-3.78
8.60
22.07
35.71
47.81
56.16
58.75
54.40
43.27
27.05
8.50
-9.11
-22.89
-30.79
-31.81
-26.21
-15.40
-1.75
11.88
22.58
28.16
27.79
22.44
14.68
7.84
4.91
7.54
15.66
27.79
41.90
56.30
70.17
83.34
95.74
106.92
115.94
121.71
123.45
120.96
114.57
104.95
92.77
78.72
63.52
48.03
33.11
19.45
7.25
-3.79
-14.34
-24.96
-35.83
-46.64
-56.80
-65.74
-73.17
-79.02
-83.33
-86.06
-87.00
-85.83
-82.22
-76.08
-67.62
-57.42
-46.33
-35.21
-24.70
-14.93
-5.50
4.43
15.61
28.26
41.65
54.07
63.38
67.69
66.31
60.12
51.31
42.59
36.05
32.31
30.43
28.56
24.92
18.63
9.91
-0.36
-11.27
-22.52
-34.44
-47.74
-62.99
-80.39
-99.45
-118.88
-136.63
-150.16
-157.10
-156.05
-147.29
-132.81
-115.77
-99.35
-85.75
-75.58
-68.14
-62.33
-57.40
-53.22
-49.93
-47.36
-44.72
-40.65
-33.68
-22.89
-8.62
7.66
23.92
38.29
49.57
57.11
60.74
60.83
58.50
55.23
52.98
53.86
59.27
69.15
81.63
94.00
104.04
110.91
114.24
113.87
109.54
100.72
86.80
67.13
41.72
11.84
-19.90
-50.95
-78.81
-101.23
-116.63
-122.81
-119.11
-108.54
-97.59
-87.83
-78.67
-69.65
-61.11
-53.47
-46.79
-40.62
-34.03
-25.92
-15.48
-3.69
7.57
16.63
22.74
26.06
26.93
25.76
23.32
21.09
20.61
23.38
30.48
41.86
55.94
69.68
79.67
83.44
80.39
71.24
57.74
42.03
26.14
11.67
-0.32
-9.10
-14.11
-14.98
-11.99
-6.05
1.43
8.89
15.06
19.26
21.52
22.44
22.79
23.07
23.25
22.89
21.35
18.16
13.26
7.06
0.31
-6.12
-11.49
-15.43
-17.99
-19.68
-21.27
-23.57
-27.17
-32.18
-38.19
-44.33
-49.60
-53.14
-54.52
-53.82
-51.64
-48.95
-46.89
-46.51
-48.48
-52.74
-58.33
-63.56
-66.46
-65.51
-60.24
-51.37
-40.56
-29.62
-19.88
-11.78
-5.03
0.90
6.30
11.03
14.63
16.69
17.14
16.33
14.84
13.27
12.12
11.71
12.26
13.96
16.83
20.73
25.28
29.90
34.02
37.18
39.23
40.29
40.65
40.65
40.55
40.38
40.00
39.15
37.54
34.92
31.18
26.34
20.56
14.19
7.86
2.37
-1.39
-2.77
-1.56
1.81
6.45
11.30
15.48
18.56
20.54
21.74
22.49
22.99
23.27
23.27
22.94
22.36
21.74
21.39
21.58
22.41
23.75
25.25
26.41
26.83
26.36
25.13
23.48
21.78
20.30
19.10
18.11
17.15
16.02
14.47
12.32
9.42
5.77
1.58
-2.76
-6.82
-10.18
-12.70
-14.51
-16.03
-17.83
-20.43
-24.06
-28.49
-32.99
-36.42
-37.62
-35.83
-30.97
-23.72
-15.24
-6.84
0.51
6.28
10.50
13.48
15.69
17.53
19.29
21.11
23.00
24.93
26.80
28.50
29.88
30.82
31.16
30.83
29.84
28.34
26.64
25.10
24.03
23.57
23.62
23.86
23.90
23.38
22.17
20.33
18.06
15.61
13.15
10.77
8.59
6.81
5.73
5.59
6.32
7.50
8.38
8.20
6.49
3.24
-1.12
-5.94
-10.66
-14.97
-18.76
-22.04
-24.70
-26.50
-27.14
-26.38
-24.20
-20.77
-16.43
-11.62
-6.74
-2.12
1.94
5.19
7.32
8.06
7.31
5.21
2.23
-0.88
-3.33
-4.51
-4.25
-2.88
-1.11
0.29
0.74
0.18
-0.99
-2.10
-2.56
-2.14
-1.12
-0.15
0.11
-0.70
-2.51
-4.81
-6.99
-8.59
-9.47
-9.80
-9.91
-10.18
-10.88
-12.17
-14.02
-16.29
-18.62
-20.59
-21.74
-21.74
-20.51
-18.17
-15.10
-11.75
-8.53
-5.72
-3.35
-1.27
0.74
2.85
5.03
7.07
8.61
9.35
9.16
8.24
7.03
5.99
5.47
5.47
5.73
5.86
5.59
4.91
4.10
3.52
3.40
3.65
3.96
3.95
3.40
2.36
1.06
-0.21
-1.33
-2.33
-3.37
-4.59
-6.06
-7.71
-9.41
-11.05
-12.51
-13.67
-14.40
-14.50
-13.76
-12.04
-9.35
-5.90
-2.10
1.58
4.72
7.11
8.71
9.65
10.10
10.17
9.94
9.52
9.10
8.94
9.33
10.36
11.81
13.25
14.28
14.77
14.90
15.02
15.51
16.56
17.99
19.26
19.74
19.01
17.07
14.34
11.39
8.70
6.68
5.41
4.66
4.15
3.76
3.67
4.18
5.58
8.01
12.02
17.70
24.54
31.55
37.80
42.76
46.24
48.42
49.61
51.51
55.13
60.37
66.18
71.46
75.60
78.60
80.73
82.45
86.22
93.39
103.54
114.82
125.31
133.96
140.41
144.61
146.56
148.94
153.11
158.36
162.45
163.34
160.29
153.70
144.46
117.39
67.50
1.21
-67.47
-126.85
-172.43
-204.96
-226.97
-240.86
-249.23
-250.46
-243.61
-229.87
-212.31
-194.19
-177.58
-162.66
-149.53
-138.11
-126.16
-112.53
-97.76
-83.61
-71.68
-62.55
-55.92
-51.29
-48.06
-44.45
-39.50
-33.40
-27.16
-21.73
-17.56
-14.64
-12.95
-12.39
-12.19
-11.82
-11.22
-10.64
-10.35
-10.44
-10.88
-11.63
-12.54
-13.14
-13.10
-12.33
-11.04
-9.47
-7.82
-6.09
-4.20
-2.00
0.55
3.32
6.06
8.44
10.24
11.41
12.04
12.27
12.20
11.87
11.26
10.41
9.42
8.48
7.74
7.28
7.05
6.92
6.73
6.49
6.25
6.15
6.31
6.77
7.54
8.60
10.06
12.06
14.76
18.19
22.20
26.50
30.81
34.94
38.92
42.93
47.25
52.06
57.34
62.79
67.93
72.25
75.41
77.27
77.97
77.79
77.08
76.05
74.71
72.94
70.43
66.83
61.51
54.05
44.35
32.75
19.80
6.03
-8.14
-22.45
-36.66
-50.80
-64.43
-76.58
-86.05
-91.92
-94.06
-93.09
-90.12
-86.43
-83.74
-83.14
-84.73
-87.75
-91.17
-94.14
-96.17
-97.08
-96.88
-96.54
-96.74
-97.43
-97.85
-97.06
-94.30
-89.07
-81.14
-65.74
-41.83
-12.80
15.15
37.23
52.12
60.99
65.73
67.70
67.55
64.75
59.22
51.84
44.23
37.84
33.36
30.73
29.50
29.25
29.05
28.44
27.55
26.84
26.70
27.19
28.24
29.62
31.50
33.63
35.89
38.31
40.91
43.45
45.31
45.84
44.56
41.66
37.87
34.56
33.32
35.40
41.03
49.24
58.13
65.46
69.60
69.91
66.90
61.72
55.52
48.88
41.48
33.73
25.56
16.83
7.26
-3.59
-16.17
-30.86
-47.46
-65.00
-81.77
-96.04
-106.65
-113.58
-118.07
-122.04
-127.43
-135.61
-147.16
-161.88
-178.91
-196.33
-210.97
-218.63
-215.09
-197.64
-166.47
-125.09
-79.35
-35.71
0.84
27.95
46.00
57.16
64.20
69.28
73.60
77.71
81.79
86.06
90.24
92.96
92.68
88.68
80.98
70.27
58.24
47.45
40.47
38.60
41.58
47.47
53.59
57.35
57.17
52.88
44.59
32.79
19.18
5.87
-6.25
-15.66
-20.56
-19.65
-12.84
-1.58
11.60
23.99
33.62
39.79
43.17
44.73
44.87
43.23
38.86
31.10
20.15
7.32
-5.30
-15.28
-20.82
-21.21
-16.81
-8.84
1.20
11.69
21.05
28.03
32.19
34.10
35.17
37.25
41.78
49.17
58.49
67.84
75.27
79.69
81.13
80.35
78.23
75.08
70.65
64.40
55.90
45.33
33.44
21.14
9.03
-2.78
-14.39
-25.69
-36.26
-45.70
-53.69
-60.20
-65.53
-70.34
-75.42
-81.37
-88.42
-96.53
-105.87
-116.04
-125.56
-132.12
-133.56
-129.01
-119.21
-106.14
-92.32
-80.55
-72.18
-66.55
-61.79
-56.30
-49.76
-42.54
-34.99
-27.03
-19.39
-12.82
-8.24
-6.59
-8.91
-15.76
-26.00
-37.10
-39.66
-28.75
-8.00
12.75
26.01
30.90
30.96
29.11
27.71
26.36
22.16
13.14
-0.33
-15.63
-27.68
-33.78
-29.99
-15.73
5.82
28.60
47.62
61.02
70.48
79.36
89.23
100.75
113.92
128.85
143.12
155.19
163.92
168.65
169.00
164.34
155.27
143.47
131.23
120.42
112.15
106.72
103.83
102.52
100.01
94.35
85.03
72.82
58.96
43.91
28.18
12.70
-1.39
-15.34
-28.82
-39.26
-43.66
-40.71
-33.78
-27.33
-25.00
-28.56
-42.07
-66.17
-97.15
-129.78
-159.82
-188.32
-216.08
-242.47
-266.26
-292.75
-326.25
-366.60
-409.75
-449.03
-481.20
-501.62
-505.62
-456.72
-346.99
-204.43
-70.27
22.59
88.62
141.85
190.55
235.86
273.77
293.78
290.17
266.58
233.38
202.92
179.97
166.13
160.57
160.91
159.97
153.12
141.26
128.71
120.41
115.43
111.55
106.60
99.36
87.03
69.19
48.70
27.88
10.24
-3.84
-14.85
-23.87
-31.55
-39.21
-46.96
-53.54
-57.27
-56.82
-53.43
-48.67
-44.37
-40.47
-36.99
-33.47
-29.07
-22.99
-14.74
-5.20
4.75
12.99
18.66
21.79
22.87
22.33
20.41
18.72
16.90
15.03
13.15
11.52
10.04
8.38
6.28
3.90
2.02
0.37
-0.28
0.63
3.36
7.45
11.94
15.73
18.09
18.97
18.86
19.05
20.83
25.04
31.68
39.83
48.04
54.71
58.66
59.27
56.94
52.53
47.17
41.87
37.29
33.67
30.91
28.61
26.25
23.52
20.22
16.35
12.06
7.56
2.99
-1.57
-6.18
-10.99
-16.15
-21.90
-28.50
-36.18
-45.06
-54.95
-65.44
-75.85
-85.35
-93.05
-98.08
-99.67
-97.33
-91.08
-81.57
-70.02
-58.03
-47.20
-38.79
-33.55
-31.57
-32.27
-34.58
-37.07
-38.27
-36.97
-32.49
-24.85
-14.66
-2.94
9.23
20.89
31.39
40.30
47.41
52.63
56.02
57.77
58.16
57.60
56.44
54.97
53.28
51.32
48.98
46.26
43.30
40.34
37.57
35.02
32.48
29.58
25.99
21.49
16.10
10.02
3.57
-2.87
-8.94
-14.42
-19.28
-23.66
-27.83
-32.09
-36.66
-41.57
-46.60
-51.34
-55.28
-57.90
-58.87
-58.04
-55.45
-51.31
-45.88
-39.42
-32.22
-24.63
-17.08
-10.03
-3.95
0.84
4.24
6.48
8.02
9.47
11.40
14.16
17.79
22.02
26.40
30.44
33.74
36.12
37.59
38.32
38.55
38.46
37.99
36.92
34.94
31.79
27.46
22.24
16.60
11.02
5.74
0.71
-4.30
-9.53
-14.97
-20.33
-25.08
-28.61
-30.43
-30.23
-27.98
-23.94
-18.54
-12.35
-6.03
-0.16
4.75
8.40
10.71
11.80
11.89
11.23
9.99
8.32
6.33
4.22
2.23
0.67
-0.23
-0.37
0.21
1.35
2.80
4.34
5.78
6.97
7.84
8.35
8.55
8.59
8.71
9.12
9.91
10.98
11.96
12.36
11.68
9.71
6.72
3.46
0.88
-0.11
0.93
3.87
8.15
13.01
17.85
22.37
26.44
30.03
32.94
34.90
35.63
35.05
33.33
30.84
28.06
25.34
22.92
20.88
19.23
17.95
16.99
16.25
15.61
14.93
14.13
13.19
12.16
11.08
9.95
8.66
7.09
5.14
2.83
0.31
-2.19
-4.42
-6.28
-7.87
-9.42
-11.22
-13.43
-15.98
-18.46
-20.23
-20.58
-18.96
-15.15
-9.39
-2.29
5.33
12.59
18.77
23.43
26.49
28.20
28.96
29.29
29.59
30.08
30.60
30.68
29.65
26.92
22.20
15.63
7.92
0.29
-6.08
-10.53
-13.28
-15.27
-17.73
-21.69
-27.92
-36.33
-46.19
-56.57
-66.83
-76.78
-86.36
-95.42
-103.56
-110.81
-117.07
-122.21
-126.14
-128.94
-130.57
-130.66
-128.45
-123.21
-115.39
-105.88
-95.64
-85.37
-75.49
-65.96
-56.24
-45.47
-28.97
-5.59
22.12
49.74
74.13
94.35
110.58
123.00
131.35
135.24
133.96
127.78
118.14
107.26
97.13
88.81
82.37
76.93
71.34
64.40
56.08
47.66
40.93
37.06
35.99
36.62
37.59
37.63
36.13
33.46
30.50
27.97
25.92
23.82
21.10
17.50
13.29
9.18
6.06
4.72
5.33
7.44
10.24
12.93
14.66
14.73
13.09
10.32
7.65
5.64
4.08
1.74
-1.03
-4.78
-10.45
-18.09
-26.57
-33.50
-37.49
-38.06
-35.93
-32.24
-28.38
-26.40
-27.30
-30.77
-34.88
-38.91
-42.85
-47.53
-53.65
-61.54
-72.21
-85.31
-99.04
-109.84
-116.18
-118.09
-117.56
-117.14
-109.62
-92.31
-68.41
-53.27
-47.91
-49.74
-51.74
-50.05
-42.13
-26.72
-5.79
17.17
40.69
60.41
70.81
70.93
64.90
57.11
50.04
43.22
36.07
28.92
23.63
21.55
23.55
29.04
36.41
43.88
49.26
51.75
52.13
52.48
54.26
58.17
63.65
69.56
75.00
78.84
80.72
80.88
79.73
77.00
72.08
64.07
52.33
36.96
18.19
-2.64
-23.32
-41.33
-54.67
-62.15
-63.65
-60.16
-50.09
-35.41
-20.85
-10.85
-6.59
-6.56
-8.53
-11.01
-13.65
-16.77
-21.29
-27.09
-33.17
-38.15
-41.25
-42.55
-42.73
-42.53
-42.25
-43.00
-43.70
-43.17
-40.64
-36.05
-29.96
-23.14
-16.20
-9.54
-3.65
1.33
5.25
7.93
9.08
8.48
6.07
2.16
-2.71
-7.98
-12.89
-16.78
-19.22
-20.14
-19.83
-18.72
-17.17
-15.43
-13.69
-11.84
-9.88
-7.83
-5.61
-3.05
0.17
4.44
10.00
16.92
25.25
34.68
44.59
54.30
63.18
70.70
76.71
81.18
84.43
87.19
89.96
92.92
95.98
99.08
102.12
105.04
107.30
108.06
106.55
101.73
92.76
79.35
62.13
42.23
21.10
-0.54
-23.27
-44.79
-61.78
-72.26
-76.59
-76.15
-74.65
-72.77
-70.71
-68.61
-66.53
-65.09
-63.45
-61.72
-59.93
-58.17
-56.30
-54.64
-53.48
-52.67
-52.09
-51.51
-50.85
-49.82
-48.20
-45.65
-42.17
-37.76
-32.28
-25.85
-18.87
-12.05
-5.97
-0.95
3.14
6.45
9.20
11.56
13.50
14.86
15.54
15.71
15.79
16.29
17.44
19.19
21.25
23.21
24.75
25.65
25.94
25.69
24.97
23.74
21.89
19.39
16.32
12.94
9.58
6.62
4.29
2.73
1.87
1.51
1.36
1.09
0.36
-1.01
-3.04
-5.50
-7.95
-9.88
-10.85
-10.56
-8.98
-6.36
-3.11
0.20
3.03
4.99
5.99
6.23
6.12
6.04
6.24
6.81
7.74
8.97
10.55
12.51
14.81
17.17
19.10
19.97
19.30
16.91
13.01
8.23
3.40
-0.61
-3.19
-4.22
-4.01
-3.16
-2.37
-2.33
-3.59
-6.40
-10.71
-16.15
-22.29
-28.66
-34.66
-39.89
-44.31
-48.21
-51.83
-55.05
-57.47
-58.59
-58.19
-56.20
-52.97
-49.25
-45.83
-42.88
-39.76
-35.57
-29.76
-22.59
-14.48
-5.79
3.32
13.05
23.93
36.37
49.74
62.48
70.14
69.92
63.41
55.40
49.48
45.46
40.71
33.39
24.90
19.59
22.56
35.77
55.80
75.03
85.73
84.06
71.52
53.53
36.10
23.39
16.44
13.79
13.30
13.88
16.03
20.06
25.55
30.59
32.61
29.46
20.59
7.47
-6.46
-17.40
-23.06
-23.78
-22.38
-22.38
-26.06
-33.22
-41.52
-47.43
-48.13
-42.84
-32.89
-20.91
-9.53
-0.58
6.38
11.15
13.83
14.59
13.57
10.99
7.24
2.91
-1.25
-4.49
-6.54
-7.41
-7.48
-7.37
-7.63
-8.50
-9.79
-11.07
-11.86
-12.06
-11.70
-11.08
-10.59
-10.57
-11.17
-12.27
-13.60
-14.74
-15.44
-15.53
-15.02
-14.11
-13.07
-12.16
-11.45
-10.95
-10.61
-10.44
-10.41
-10.52
-10.71
-10.86
-10.87
-10.67
-10.26
-9.71
-9.15
-8.62
-8.16
-7.73
-7.29
-6.85
-6.37
-5.85
-5.20
-4.36
-3.27
-1.92
-0.41
1.17
2.68
4.10
5.47
6.89
8.42
10.02
11.58
13.02
14.35
15.70
17.28
19.17
21.30
23.36
25.02
26.08
26.56
26.66
26.59
26.43
26.09
25.40
24.24
22.64
20.79
18.86
16.96
15.04
13.01
10.76
8.34
5.92
3.71
1.89
0.51
-0.54
-1.50
-2.57
-3.83
-5.22
-6.58
-7.71
-8.50
-8.96
-9.19
-9.28
-9.34
-9.41
-9.56
-9.84
-10.31
-10.94
-11.62
-12.18
-12.50
-12.59
-12.51
-12.41
-12.39
-12.42
-12.45
-12.36
-12.12
-11.74
-11.29
-10.87
-10.46
-10.01
-9.40
-8.55
-7.46
-6.25
-5.08
-4.10
-3.35
-2.78
-2.25
-1.65
-0.94
-0.18
0.54
1.14
1.59
1.89
2.01
1.88
1.44
0.68
-0.27
-1.19
-1.84
-2.10
-2.06
-1.98
-2.16
-2.81
-3.96
-5.44
-7.03
-8.53
-9.87
-11.06
-12.10
-12.92
-13.36
-13.23
-12.46
-11.13
-9.49
-7.82
-6.28
-4.87
-3.51
-2.16
-0.89
0.13
0.73
0.93
0.90
0.89
1.10
1.52
2.00
2.32
2.35
2.16
1.84
1.51
1.19
0.85
0.44
-0.03
-0.49
-0.86
-1.13
-1.36
-1.67
-2.25
-3.25
-4.71
-6.55
-8.54
-10.38
-11.78
-12.55
-12.66
-12.16
-11.10
-9.53
-7.48
-5.06
-2.49
-0.05
1.95
3.34
4.09
4.32
4.16
3.74
3.13
2.42
1.73
1.20
0.98
1.11
1.60
2.29
3.05
3.67
4.00
3.89
3.26
2.13
0.59
-1.19
-2.98
-4.63
-6.04
-7.29
-8.54
-10.02
-11.88
-14.11
-16.47
-18.62
-20.12
-20.66
-20.13
-18.61
-16.32
-13.56
-10.61
-7.64
-4.79
-2.10
0.34
2.42
4.08
5.36
6.37
7.28
8.21
9.22
10.23
11.07
11.55
11.70
11.70
11.85
12.33
13.18
14.21
15.13
15.56
15.25
14.20
12.61
10.75
8.92
7.35
6.22
5.63
5.17
4.30
2.74
0.55
-2.04
-4.58
-6.79
-8.32
-8.76
-8.60
-8.33
-7.91
-6.86
-4.78
-1.34
2.96
7.59
12.19
15.24
15.53
12.98
8.48
2.97
-2.52
-8.16
-14.10
-20.38
-28.62
-40.34
-55.63
-73.23
-91.53
-108.61
-124.07
-137.80
-139.62
-124.35
-95.67
-63.38
-35.57
-19.20
-9.81
-3.59
1.72
6.96
12.13
16.00
18.29
19.90
21.74
24.68
27.96
31.00
33.98
36.62
39.31
43.30
49.80
59.03
70.42
81.71
90.67
95.58
94.87
87.83
75.22
59.01
41.62
25.64
12.69
4.64
1.07
0.46
0.13
-2.98
-11.24
-25.29
-43.37
-62.00
-76.85
-84.70
-84.64
-78.37
-69.03
-59.58
-51.72
-45.37
-40.53
-36.78
-33.81
-31.44
-29.66
-28.31
-26.76
-23.95
-18.86
-10.96
-0.44
11.56
23.35
33.13
39.57
42.18
41.40
38.38
34.54
31.28
29.46
29.43
31.14
34.39
38.98
44.73
51.23
57.65
62.87
65.76
65.85
63.73
61.01
59.49
60.25
62.95
65.98
67.29
65.40
60.13
52.65
44.83
38.30
33.94
31.89
31.84
33.41
36.33
40.37
45.27
50.42
54.98
58.15
59.58
59.51
58.49
57.17
56.05
55.69
56.33
57.84
59.77
61.72
63.34
64.19
63.83
62.06
59.49
56.81
54.49
52.60
51.27
50.61
50.11
49.02
46.55
42.62
37.17
29.99
20.74
9.45
-3.22
-15.68
-25.69
-35.72
-47.32
-61.73
-77.94
-96.04
-115.95
-137.28
-160.82
-185.94
-211.14
-234.29
-254.21
-271.61
-288.25
-305.09
-321.87
-338.89
-353.61
-361.68
-358.03
-338.86
-304.05
-256.64
-200.89
-130.33
-49.66
29.60
95.77
144.57
182.19
214.48
241.73
261.82
273.75
271.23
254.38
227.47
197.18
171.43
155.59
151.52
157.74
170.07
180.90
184.17
176.68
152.18
113.65
72.74
42.51
28.52
27.74
32.33
36.62
38.76
39.78
42.35
46.91
52.03
53.95
50.74
42.70
32.35
22.85
16.28
13.62
13.19
11.42
4.52
-9.63
-28.94
-49.65
-67.24
-77.88
-79.01
-71.07
-57.41
-43.06
-32.23
-26.96
-27.10
-30.78
-35.79
-40.47
-44.60
-49.08
-54.93
-61.94
-68.55
-72.99
-74.03
-71.77
-67.46
-62.94
-59.79
-58.60
-58.69
-58.55
-56.78
-52.63
-46.42
-39.37
-33.07
-28.89
-27.58
-29.16
-33.09
-38.64
-44.86
-50.80
-55.51
-58.20
-58.37
-55.95
-51.37
-45.38
-38.91
-32.82
-27.80
-24.30
-22.55
-22.55
-24.07
-26.62
-29.62
-32.46
-34.67
-36.01
-36.45
-36.15
-35.37
-34.42
-33.58
-33.00
-32.70
-32.52
-32.20
-31.53
-30.46
-29.16
-27.93
-27.10
-26.84
-27.13
-27.79
-28.62
-29.38
-29.78
-29.42
-27.82
-24.56
-19.50
-12.85
-5.15
2.92
10.78
18.10
24.70
30.53
35.47
39.32
41.95
43.37
43.78
43.57
43.08
42.59
42.24
42.07
42.05
42.19
42.45
42.82
43.24
43.52
43.44
42.76
41.31
39.09
36.30
33.25
30.30
27.66
25.37
23.23
20.94
18.28
15.34
12.56
10.71
10.55
12.61
16.89
22.86
29.71
36.57
42.78
48.00
52.07
54.90
56.39
56.42
55.06
52.57
49.42
46.14
43.13
40.61
38.55
36.75
34.97
32.95
30.51
27.55
24.05
20.04
15.66
11.03
6.24
1.34
-3.69
-8.90
-14.36
-20.09
-25.99
-31.82
-37.16
-41.37
-43.80
-43.95
-41.66
-37.22
-31.26
-24.63
-18.05
-12.01
-6.69
-2.13
1.59
4.32
5.84
6.05
5.10
3.47
1.80
0.74
0.64
1.48
2.90
4.43
5.69
6.60
7.31
8.01
8.75
9.41
9.68
9.31
8.17
6.35
4.05
1.46
-1.34
-4.36
-7.55
-10.69
-13.27
-14.62
-14.12
-11.44
-6.68
-0.32
7.00
14.68
22.39
30.00
37.46
44.59
50.98
56.14
59.67
61.48
61.79
60.91
59.07
56.30
52.53
47.87
42.79
38.07
34.52
32.59
32.19
32.76
33.55
33.95
33.72
32.88
31.53
29.62
26.79
22.54
16.43
8.34
-1.31
-11.59
-21.18
-28.70
-33.11
-33.99
-31.61
-26.83
-20.81
-14.61
-9.03
-4.47
-1.06
1.24
2.49
2.73
2.01
0.50
-1.55
-3.79
-5.83
-7.37
-8.26
-8.56
-8.53
-8.54
-8.91
-9.85
-11.38
-13.34
-15.44
-17.43
-19.15
-20.58
-21.86
-23.22
-24.87
-27.01
-29.72
-32.94
-36.44
-39.76
-42.32
-43.42
-42.47
-39.16
-33.60
-26.29
-18.04
-9.74
-2.16
4.24
9.24
12.87
15.21
16.38
16.56
15.93
14.73
13.27
11.81
10.57
9.68
9.18
9.02
9.10
9.22
9.21
8.93
8.27
7.22
5.78
4.00
1.92
-0.40
-2.91
-5.61
-8.56
-11.85
-15.57
-19.66
-23.79
-27.35
-29.53
-29.61
-27.20
-22.40
-15.82
-8.34
-0.91
5.74
11.21
15.33
18.10
19.61
19.90
19.11
17.49
15.42
13.35
11.70
10.71
10.36
10.46
10.63
10.52
9.91
8.72
7.08
5.20
3.32
1.58
0.04
-1.41
-2.95
-4.78
-7.10
-10.03
-13.57
-17.55
-21.54
-24.97
-27.19
-27.64
-26.06
-22.51
-17.41
-11.40
-5.21
0.58
5.58
9.59
12.55
14.49
15.44
15.44
14.58
13.05
11.14
9.21
7.60
6.53
6.06
6.07
6.30
6.45
6.25
5.56
4.38
2.85
1.19
-0.45
-2.04
-3.68
-5.56
-7.87
-10.68
-13.99
-17.62
-21.31
-24.61
-26.93
-27.66
-26.33
-22.84
-17.53
-11.14
-4.56
1.45
6.40
10.21
12.96
14.82
15.85
16.01
15.27
13.72
11.62
9.38
7.40
5.95
5.13
4.80
4.74
4.73
4.56
4.15
3.44
2.46
1.25
-0.11
-1.62
-3.33
-5.35
-7.86
-10.99
-14.74
-18.94
-23.17
-26.75
-28.96
-29.13
-26.91
-22.44
-16.29
-9.35
-2.56
3.39
8.15
11.72
14.28
15.94
16.72
16.55
15.48
13.72
11.68
9.82
8.49
7.82
7.68
7.79
7.85
7.64
7.11
6.30
5.29
4.12
2.78
1.21
-0.64
-2.82
-5.30
-8.10
-11.24
-14.74
-18.50
-22.24
-25.43
-27.39
-27.52
-25.50
-21.46
-15.90
-9.57
-3.21
2.56
7.39
11.08
13.62
15.11
15.69
15.54
14.86
13.80
12.53
11.27
10.23
9.63
9.56
9.96
10.62
11.18
11.36
10.95
9.94
8.46
6.67
4.72
2.64
0.40
-2.06
-4.74
-7.58
-10.51
-13.54
-16.74
-20.12
-23.52
-26.44
-28.17
-27.98
-25.48
-20.81
-14.63
-7.90
-1.52
3.88
8.03
10.96
12.82
13.79
14.08
13.92
13.51
13.02
12.53
12.05
11.57
11.13
10.77
10.56
10.46
10.34
9.96
9.13
7.72
5.74
3.34
0.68
-2.08
-4.86
-7.66
-10.50
-13.39
-16.37
-19.45
-22.68
-26.13
-29.77
-33.40
-36.58
-38.66
-39.05
-37.41
-33.81
-28.80
-23.12
-17.48
-12.37
-7.95
-4.22
-1.14
1.22
2.72
3.27
2.89
1.82
0.46
-0.74
-1.43
-1.48
-1.06
-0.50
-0.11
-0.14
-0.62
-1.42
-2.35
-3.24
-4.09
-5.05
-6.28
-7.80
-9.53
-11.37
-13.19
-14.96
-16.68
-18.44
-20.17
-21.65
-22.20
-21.30
-18.68
-14.35
-8.39
-0.86
8.36
19.48
32.77
48.73
67.16
87.10
107.24
126.34
143.40
157.67
168.63
176.06
180.89
183.88
185.53
186.07
185.63
183.80
179.75
172.37
160.79
145.60
127.22
105.82
81.60
55.34
28.00
0.50
-26.56
-58.42
-94.28
-129.19
-157.56
-176.79
-187.26
-191.21
-191.10
-188.81
-185.22
-179.31
-170.24
-157.99
-144.58
-130.36
-115.98
-102.18
-89.62
-78.71
-68.66
-58.78
-48.72
-38.27
-27.03
-14.91
-2.15
10.03
18.90
22.26
19.05
10.74
0.96
-6.04
-7.57
-3.24
5.35
15.67
25.85
34.94
42.89
49.97
56.23
61.07
63.46
62.47
57.96
50.95
43.11
36.01
30.34
25.75
21.19
15.68
8.83
1.15
-6.13
-11.77
-14.95
-15.68
-14.83
-13.38
-12.21
-11.73
-11.86
-12.08
-11.92
-11.02
-9.36
-7.22
-5.02
-3.08
-1.52
-0.16
1.36
3.27
5.69
8.57
11.76
15.15
18.71
22.49
26.52
30.73
34.72
38.12
40.72
42.54
43.77
44.56
44.87
44.27
43.48
42.47
41.15
39.39
37.03
33.90
29.81
24.64
18.45
11.52
4.02
-3.77
-11.61
-19.29
-26.69
-33.69
-40.14
-45.87
-50.70
-54.65
-57.77
-60.17
-62.10
-63.91
-65.96
-68.45
-71.22
-73.72
-75.24
-75.12
-73.10
-69.48
-65.03
-60.59
-56.64
-53.01
-49.02
-43.82
-36.79
-27.92
-17.77
-7.29
2.44
10.47
15.95
18.34
17.56
14.27
9.96
6.50
5.29
6.35
7.94
7.09
0.93
-11.83
-30.10
-50.72
-69.70
-83.79
-91.41
-92.64
-88.60
-80.54
-69.38
-55.68
-39.92
-22.65
-4.57
13.51
30.76
46.35
59.50
69.63
76.43
79.98
80.62
78.77
74.73
68.70
60.96
52.06
42.82
34.10
26.51
20.18
14.78
9.88
5.24
1.00
-2.43
-4.58
-5.22
-4.50
-2.85
-0.84
1.09
2.71
4.05
5.22
6.32
7.36
8.28
8.97
9.41
9.66
9.79
9.86
9.92
10.01
10.15
10.40
10.77
11.15
11.40
11.29
10.66
9.49
7.87
5.99
4.02
2.14
0.40
-1.17
-2.60
-3.93
-5.20
-6.46
-7.78
-9.21
-10.81
-12.56
-14.43
-16.30
-18.09
-19.67
-20.99
-21.95
-22.41
-22.16
-21.00
-18.83
-15.77
-12.18
-8.54
-5.24
-2.50
-0.28
1.57
3.21
4.64
5.77
6.46
6.67
6.55
6.30
6.19
6.34
6.74
7.19
7.45
7.33
6.79
5.97
5.05
4.25
3.65
3.24
2.89
2.56
2.18
1.73
1.15
0.26
-1.09
-3.07
-5.68
-8.77
-12.03
-15.16
-17.90
-20.11
-21.69
-22.57
-22.65
-21.81
-19.97
-17.16
-13.54
-9.40
-5.10
-0.98
2.71
5.86
8.46
10.54
12.16
13.38
14.27
14.93
15.48
15.99
16.50
16.99
17.44
17.82
18.13
18.40
18.62
18.77
18.78
18.61
18.24
17.60
16.67
15.34
13.55
11.27
8.62
5.81
3.12
0.78
-1.06
-2.43
-3.52
-4.62
-6.06
-8.04
-10.57
-13.46
-16.32
-18.68
-20.11
-20.31
-19.13
-16.63
-13.00
-8.54
-3.64
1.29
5.84
9.69
12.63
14.63
15.82
16.37
16.54
16.50
16.37
16.21
16.02
15.80
15.55
15.33
15.17
15.07
15.00
14.90
14.67
14.22
13.42
12.14
10.29
7.89
5.04
1.97
-1.08
-3.96
-6.58
-8.92
-11.02
-12.97
-14.85
-16.79
-18.93
-21.34
-23.86
-26.08
-27.39
-27.23
-25.30
-21.74
-17.03
-11.86
-6.81
-2.20
1.87
5.49
8.69
11.40
13.46
14.73
15.17
14.95
14.37
13.76
13.35
13.23
13.32
13.47
13.55
13.49
13.28
12.91
12.35
11.54
10.49
9.23
7.89
6.56
5.28
3.94
2.37
0.43
-1.91
-4.55
-7.32
-10.06
-12.63
-14.95
-17.01
-18.88
-20.72
-22.68
-24.79
-26.82
-28.29
-28.59
-27.25
-24.19
-19.74
-14.59
-9.44
-4.81
-0.94
2.24
4.88
7.15
9.13
10.87
12.36
13.67
14.84
15.94
17.00
18.02
18.94
19.65
20.06
20.09
19.74
19.09
18.26
17.31
16.22
14.93
13.34
11.45
9.33
7.14
5.05
3.10
1.26
-0.61
-2.59
-4.66
-6.68
-8.42
-9.73
-10.62
-11.29
-12.07
-13.25
-14.93
-16.88
-18.60
-19.43
-18.76
-16.22
-11.83
-5.98
0.69
7.55
14.12
20.17
25.59
30.40
34.71
38.56
41.90
44.66
46.84
48.55
49.90
50.88
51.37
51.12
49.87
47.28
43.19
37.67
30.94
23.23
14.49
4.61
-6.48
-18.68
-32.19
-46.89
-62.27
-77.55
-91.92
-105.07
-116.81
-126.89
-135.02
-141.83
-147.64
-152.12
-154.50
-153.94
-150.83
-145.95
-140.08
-133.85
-129.05
-126.62
-126.04
-125.57
-123.11
-118.28
-111.30
-102.64
-92.96
-84.86
-80.25
-79.24
-80.38
-81.34
-81.60
-80.76
-78.19
-62.15
-28.34
17.54
63.36
95.93
117.43
131.38
140.74
146.98
150.68
150.42
145.39
136.42
125.63
115.65
106.95
99.49
93.18
88.05
82.66
76.08
68.47
60.89
54.77
49.91
45.90
42.68
40.63
39.53
39.57
41.50
46.30
54.62
65.48
77.28
88.26
97.03
102.37
103.90
102.26
98.72
94.60
90.35
85.83
80.66
74.63
67.72
60.34
53.18
46.87
41.71
37.45
33.64
29.92
26.11
22.14
17.97
13.41
8.26
2.47
-3.78
-10.09
-15.93
-20.92
-24.95
-28.07
-30.44
-32.11
-33.01
-32.95
-31.75
-29.23
-25.31
-20.07
-13.80
-7.04
-0.52
4.99
8.89
10.89
11.16
10.15
8.47
6.71
5.25
4.23
3.58
3.05
2.35
1.22
-0.45
-2.56
-4.79
-6.71
-7.90
-8.09
-7.20
-5.39
-2.95
-0.27
2.27
4.35
5.81
6.69
7.21
7.64
8.16
8.65
8.73
7.83
5.45
1.40
-4.11
-10.54
-17.27
-23.92
-30.44
-37.17
-44.53
-52.86
-62.13
-71.96
-81.67
-90.49
-97.70
-102.77
-105.43
-105.64
-103.62
-99.81
-94.88
-89.64
-84.89
-81.26
-79.00
-77.95
-77.59
-77.17
-75.89
-73.05
-68.26
-61.56
-53.50
-44.95
-36.98
-30.53
-26.17
-23.98
-23.54
-24.13
-24.95
-25.32
-24.93
-24.01
-23.44
-24.66
-29.14
-37.75
-50.02
-64.12
-77.21
-86.48
-90.15
-87.95
-80.96
-70.95
-59.51
-47.52
-35.08
-21.71
-6.89
9.58
27.38
45.68
63.39
79.61
94.01
106.93
119.10
131.14
143.06
153.99
162.59
167.53
168.05
164.15
156.34
145.29
131.50
115.31
97.03
77.24
56.81
36.80
18.20
1.60
-12.93
-25.82
-37.77
-49.42
-60.98
-72.01
-81.53
-88.30
-91.38
-90.49
-86.17
-79.54
-71.84
-63.94
-56.18
-48.40
-40.37
-32.12
-24.05
-16.79
-10.88
-6.45
-3.24
-0.75
1.56
3.94
6.43
8.88
11.19
13.31
15.30
17.21
19.01
20.57
21.71
22.33
22.43
22.19
21.86
21.65
21.64
21.65
21.24
19.87
17.03
12.46
6.31
-0.85
-8.13
-14.49
-18.97
-20.89
-19.96
-16.33
-10.63
-3.78
3.27
9.76
15.39
20.27
24.78
29.25
33.71
37.84
41.06
42.81
42.76
40.91
37.56
33.10
27.90
22.16
16.00
9.47
2.66
-4.29
-11.20
-17.94
-24.38
-30.41
-35.91
-40.76
-44.87
-48.19
-50.77
-52.73
-54.25
-55.48
-56.54
-57.38
-57.79
-57.38
-55.64
-52.00
-46.09
-37.80
-27.48
-15.87
-3.95
7.36
17.42
26.05
33.47
40.22
46.83
53.75
61.17
69.05
77.20
85.30
93.01
100.04
106.13
111.14
115.00
117.76
119.42
119.96
119.23
117.06
113.30
107.93
101.11
93.15
84.47
75.47
66.48
57.65
48.93
40.09
30.86
21.15
11.20
1.65
-6.59
-12.64
-15.90
-16.36
-14.55
-11.39
-7.82
-4.55
-1.88
0.21
1.92
3.38
4.58
5.41
5.74
5.59
5.07
4.37
3.63
2.90
2.10
1.18
0.14
-0.89
-1.74
-2.31
-2.57
-2.71
-3.06
-3.96
-5.65
-8.17
-11.36
-14.85
-18.24
-21.19
-23.63
-25.75
-27.93
-30.64
-34.18
-38.61
-43.64
-48.67
-52.94
-55.72
-56.54
-55.27
-52.19
-47.85
-42.91
-37.92
-33.22
-28.95
-25.03
-21.41
-18.08
-15.09
-12.55
-10.48
-8.78
-7.26
-5.68
-3.88
-1.82
0.41
2.65
4.75
6.63
8.24
9.63
10.79
11.70
12.24
12.24
11.56
10.10
7.96
5.37
2.64
0.05
-2.28
-4.43
-6.71
-9.43
-12.85
-16.99
-21.61
-26.19
-30.10
-32.66
-33.38
-32.07
-28.89
-24.30
-18.99
-13.66
-8.85
-4.89
-1.82
0.48
2.20
3.50
4.45
5.04
5.21
4.89
4.11
2.93
1.48
-0.12
-1.76
-3.39
-5.05
-6.82
-8.80
-11.12
-13.84
-16.92
-20.11
-22.96
-24.76
-24.64
-21.74
-15.49
-5.79
6.86
21.40
36.48
50.65
62.72
71.83
77.61
80.08
79.66
77.02
72.96
68.20
63.27
58.42
53.68
49.02
44.50
40.28
36.54
33.26
30.23
27.10
23.56
19.60
15.39
11.21
7.20
3.19
-1.06
-5.73
-10.65
-15.35
-19.19
-21.75
-22.96
-23.16
-22.86
-22.55
-22.48
-22.74
-23.29
-24.10
-25.03
-25.87
-26.25
-25.77
-24.20
-21.66
-18.60
-15.70
-13.61
-12.67
-12.87
-13.94
-15.44
-16.90
-17.80
-17.66
-16.04
-12.70
-7.73
-1.59
4.96
11.13
16.22
19.82
21.77
22.11
21.03
18.82
15.92
12.85
10.12
8.17
7.15
6.97
7.27
7.61
7.60
7.06
5.97
4.43
2.48
0.08
-2.94
-6.65
-11.03
-15.88
-20.93
-25.95
-30.90
-35.84
-40.88
-46.03
-51.20
-56.18
-60.78
-64.79
-67.95
-69.86
-69.99
-67.86
-63.25
-56.38
-47.89
-38.63
-29.48
-21.08
-13.82
-7.88
-3.36
-0.23
1.69
2.73
3.42
4.30
5.74
7.85
10.44
13.21
15.90
18.43
20.93
23.65
26.81
30.46
34.43
38.40
41.90
44.57
46.14
46.50
45.64
43.66
40.70
36.96
32.74
28.35
24.00
19.82
15.76
11.75
7.84
4.34
1.69
0.34
0.48
1.87
4.01
6.27
8.12
9.35
9.97
10.09
9.82
9.18
8.18
6.88
5.40
3.94
2.65
1.59
0.66
-0.28
-1.41
-2.79
-4.32
-5.80
-6.97
-7.63
-7.82
-7.73
-7.70
-8.06
-9.04
-10.60
-12.59
-14.69
-16.65
-18.26
-19.47
-20.29
-20.87
-21.40
-22.14
-23.28
-24.76
-26.21
-27.01
-26.44
-24.03
-19.74
-14.02
-7.62
-1.32
4.35
9.20
13.27
16.69
19.52
21.77
23.46
24.59
25.26
25.54
25.43
24.88
23.92
22.63
21.22
19.94
18.92
18.17
17.54
16.88
16.09
15.15
14.10
12.90
11.46
9.69
7.60
5.25
2.71
-0.03
-3.11
-6.70
-10.90
-15.56
-20.27
-24.41
-27.32
-28.54
-27.92
-25.66
-22.25
-18.34
-14.49
-11.17
-8.59
-6.78
-5.64
-5.01
-4.71
-4.56
-4.36
-3.95
-3.25
-2.25
-1.00
0.42
1.94
3.51
5.10
6.64
8.07
9.30
10.28
10.95
11.22
11.02
10.26
8.92
7.09
4.84
2.25
-0.72
-4.26
-8.54
-13.66
-19.54
-25.86
-32.18
-37.96
-42.80
-46.41
-48.69
-49.72
-49.68
-48.88
-47.64
-46.28
-45.06
-44.13
-43.58
-43.43
-43.67
-44.27
-45.20
-46.32
-47.45
-48.37
-48.86
-48.75
-48.01
-46.73
-45.19
-43.73
-42.68
-42.22
-42.39
-43.00
-43.85
-44.75
-45.66
-46.64
-47.82
-49.23
-50.83
-52.48
-53.91
-54.84
-54.94
-53.82
-51.14
-46.69
-40.53
-33.04
-24.94
-17.03
-10.05
-4.39
-0.11
2.99
5.17
6.61
7.33
7.24
6.30
4.58
2.26
-0.38
-3.15
-5.91
-8.65
-11.36
-14.03
-16.61
-19.08
-21.41
-23.58
-25.55
-27.19
-28.36
-28.91
-28.77
-27.95
-26.56
-24.83
-23.05
-21.51
-20.37
-19.58
-18.76
-17.28
-14.44
-9.68
-2.81
5.89
15.80
26.09
36.01
45.01
52.80
59.32
64.62
68.79
71.89
73.94
75.00
75.17
74.70
73.88
72.97
72.15
71.43
70.76
70.03
69.16
68.08
66.73
65.04
62.88
60.16
56.84
52.96
48.65
44.09
39.49
34.98
30.63
26.33
21.84
16.89
11.29
5.07
-1.40
-7.49
-12.38
-15.36
-16.03
-14.44
-11.10
-6.82
-2.53
0.99
3.26
4.14
3.79
2.57
0.85
-1.11
-3.17
-5.30
-7.50
-9.67
-11.61
-13.05
-13.81
-13.85
-13.35
-12.57
-11.83
-11.31
-11.03
-10.95
-11.03
-11.27
-11.71
-12.36
-13.21
-14.13
-15.02
-15.93
-17.04
-18.63
-20.91
-23.84
-27.08
-29.99
-31.82
-31.92
-29.93
-25.82
-19.87
-12.55
-4.42
3.93
12.00
19.44
26.05
31.84
36.91
41.43
45.45
48.97
51.90
54.18
55.90
57.23
58.37
59.44
60.36
60.86
60.67
59.60
57.68
55.09
52.05
48.68
44.95
40.75
35.97
30.60
24.72
18.41
11.70
4.50
-3.20
-11.18
-18.87
-25.40
-29.85
-31.59
-30.54
-27.23
-22.60
-17.59
-12.92
-8.89
-5.57
-2.88
-0.83
0.54
1.20
1.22
0.77
0.06
-0.74
-1.55
-2.33
-2.99
-3.40
-3.37
-2.79
-1.69
-0.28
1.10
2.11
2.51
2.20
1.23
-0.27
-2.20
-4.53
-7.32
-10.65
-14.52
-18.78
-23.01
-26.66
-29.11
-29.83
-28.48
-25.04
-19.70
-12.91
-5.26
2.66
10.31
17.31
23.46
28.72
33.06
36.46
38.80
39.96
39.94
38.88
37.10
35.02
33.03
31.32
29.94
28.80
27.74
26.61
25.23
23.46
21.19
18.34
14.98
11.32
7.60
4.01
0.66
-2.51
-5.63
-8.86
-12.33
-16.14
-20.32
-24.74
-29.04
-32.60
-34.63
-34.43
-31.66
-26.61
-20.04
-12.99
-6.35
-0.53
4.52
9.14
13.65
18.12
22.36
26.09
29.12
31.48
33.39
35.11
36.77
38.28
39.42
39.96
39.78
38.98
37.80
36.47
35.07
33.51
31.54
28.87
25.37
21.14
16.51
11.86
7.50
3.44
-0.47
-4.51
-8.92
-13.79
-19.08
-24.59
-29.97
-34.70
-38.09
-39.43
-38.26
-34.61
-29.03
-22.51
-16.05
-10.39
-5.76
-1.99
1.26
4.21
6.80
8.78
9.93
10.23
9.95
9.53
9.38
9.68
10.35
11.11
11.69
11.92
11.82
11.48
11.00
10.35
9.48
8.34
6.98
5.52
4.11
2.81
1.52
0.10
-1.69
-4.01
-7.00
-10.63
-14.69
-18.74
-22.07
-23.95
-23.83
-21.59
-17.62
-12.68
-7.62
-3.10
0.53
3.29
5.32
6.75
7.59
7.79
7.36
6.39
5.14
3.88
2.86
2.20
1.89
1.81
1.78
1.66
1.37
0.86
0.03
-1.26
-3.13
-5.60
-8.46
-11.38
-14.02
-16.22
-18.14
-20.20
-22.83
-26.25
-30.34
-34.64
-38.56
-41.48
-42.93
-42.60
-40.30
-36.10
-30.31
-23.52
-16.47
-9.82
-3.96
1.02
5.27
8.89
11.87
14.02
15.19
15.38
14.85
13.99
13.24
12.79
12.66
12.67
12.59
12.29
11.73
10.97
10.09
9.08
7.86
6.28
4.26
1.83
-0.80
-3.37
-5.73
-7.93
-10.28
-13.17
-16.85
-21.24
-25.84
-29.89
-32.60
-33.39
-32.13
-29.12
-24.91
-20.12
-15.23
-10.51
-6.05
-1.92
1.79
4.95
7.43
9.17
10.22
10.67
10.66
10.33
9.79
9.17
8.60
8.20
8.00
7.94
7.90
7.79
7.56
7.28
7.06
7.03
7.27
7.84
8.71
9.83
11.06
12.22
13.07
13.33
12.76
11.16
8.58
5.28
1.75
-1.40
-3.65
-4.72
-4.68
-3.87
-2.74
-1.65
-0.78
-0.03
0.81
1.98
3.58
5.58
7.81
10.02
12.03
13.73
15.17
16.41
17.51
18.45
19.08
19.28
19.05
18.49
17.87
17.40
17.17
17.10
16.94
16.44
15.41
13.84
11.80
9.42
6.81
4.08
1.29
-1.51
-4.24
-6.88
-9.39
-11.81
-14.21
-16.71
-19.45
-22.49
-25.76
-28.97
-31.71
-33.55
-34.20
-33.58
-31.84
-29.26
-26.13
-22.73
-19.29
-16.01
-13.03
-10.48
-8.41
-6.78
-5.54
-4.62
-3.95
-3.49
-3.12
-2.73
-2.18
-1.36
-0.27
0.99
2.25
3.35
4.21
4.89
5.48
6.09
6.72
7.17
7.22
6.70
5.66
4.44
3.45
2.99
3.01
3.17
2.96
1.96
0.09
-2.42
-5.19
-7.81
-10.01
-11.64
-12.58
-12.69
-11.86
-10.07
-7.50
-4.48
-1.47
1.09
2.88
3.74
3.61
2.42
0.11
-3.38
-8.00
-13.45
-19.18
-24.55
-29.02
-32.34
-34.60
-36.05
-36.97
-37.48
-37.60
-37.30
-36.74
-36.20
-35.99
-36.21
-36.69
-37.02
-36.82
-35.95
-34.60
-33.23
-32.28
-32.04
-32.52
-33.44
-34.39
-34.82
-34.22
-32.17
-28.43
-23.05
-16.36
-8.89
-1.27
5.98
12.53
18.27
23.25
27.55
31.16
34.01
36.00
37.15
37.66
37.86
38.10
38.59
39.27
39.86
40.08
39.74
38.94
37.89
36.80
35.70
34.36
32.50
29.90
26.62
22.92
19.21
15.79
12.73
9.89
7.00
3.77
0.06
-4.15
-8.78
-13.58
-18.17
-22.00
-24.42
-24.87
-23.13
-19.43
-14.42
-8.92
-3.62
1.18
5.52
9.62
13.60
17.39
20.70
23.23
24.85
25.66
26.02
26.32
26.90
27.91
29.29
30.89
32.53
34.08
35.52
36.86
38.10
39.11
39.69
39.63
38.88
37.55
35.93
34.30
32.81
31.36
29.73
27.66
25.03
21.87
18.32
14.52
10.55
6.41
2.04
-2.61
-7.54
-12.75
-18.17
-23.73
-29.20
-34.23
-38.32
-40.90
-41.53
-40.05
-36.68
-31.99
-26.68
-21.45
-16.75
-12.75
-9.35
-6.41
-3.81
-1.55
0.35
1.86
3.09
4.23
5.50
7.03
8.84
10.81
12.75
14.49
15.95
17.09
17.91
18.39
18.40
17.78
16.42
14.37
11.82
9.11
6.52
4.16
1.96
-0.31
-2.84
-5.64
-8.58
-11.41
-13.95
-16.15
-18.11
-20.02
-22.06
-24.37
-27.00
-29.86
-32.71
-35.10
-36.47
-36.30
-34.36
-30.83
-26.27
-21.42
-16.87
-12.91
-9.52
-6.54
-3.87
-1.57
0.21
1.33
1.77
1.72
1.46
1.24
1.24
1.51
2.05
2.78
3.63
4.48
5.23
5.78
6.12
6.24
6.14
5.75
4.93
3.50
1.39
-1.37
-4.54
-7.81
-10.89
-13.57
-15.88
-17.99
-20.18
-22.72
-25.75
-29.22
-32.89
-36.37
-39.14
-40.69
-40.58
-38.61
-34.83
-29.60
-23.51
-17.18
-11.16
-5.75
-1.00
3.14
6.77
9.87
12.34
14.15
15.39
16.31
17.25
18.46
20.01
21.74
23.37
24.64
25.44
25.85
26.03
26.14
26.19
26.03
25.48
24.39
22.72
20.56
18.09
15.45
12.72
9.88
6.86
3.64
0.24
-3.27
-6.82
-10.37
-13.88
-17.32
-20.48
-23.00
-24.40
-24.21
-22.20
-18.55
-13.80
-8.70
-3.96
0.06
3.32
6.05
8.51
10.85
12.97
14.69
15.85
16.43
16.58
16.55
16.57
16.74
17.04
17.34
17.51
17.49
17.27
16.88
16.36
15.67
14.74
13.48
11.85
9.88
7.65
5.27
2.83
0.37
-2.12
-4.65
-7.22
-9.79
-12.34
-14.83
-17.25
-19.66
-22.11
-24.64
-27.19
-29.52
-31.23
-31.87
-31.08
-28.72
-24.97
-20.26
-15.11
-10.03
-5.37
-1.35
1.95
4.51
6.32
7.44
8.01
8.28
8.46
8.78
9.33
10.13
11.09
12.09
12.99
13.69
14.10
14.25
14.22
14.12
14.03
13.93
13.71
13.20
12.26
10.88
9.13
7.16
5.09
2.97
0.78
-1.54
-4.06
-6.84
-9.90
-13.28
-17.03
-21.13
-25.46
-29.71
-33.39
-35.94
-36.85
-35.84
-32.99
-28.67
-23.49
-18.06
-12.85
-8.10
-3.87
-0.13
3.15
5.97
8.28
10.08
11.44
12.48
13.30
13.96
14.45
14.73
14.82
14.79
14.81
14.98
15.31
15.61
15.64
15.18
14.14
12.58
10.66
8.55
6.37
4.16
1.96
-0.19
-2.27
-4.33
-6.48
-8.91
-11.75
-14.93
-18.09
-20.60
-21.81
-21.26
-18.91
-15.21
-10.86
-6.56
-2.73
0.53
3.34
5.79
7.86
9.35
10.11
10.11
9.55
8.81
8.20
7.87
7.80
7.85
7.90
7.93
8.00
8.18
8.48
8.77
8.86
8.53
7.63
6.17
4.27
2.14
-0.05
-2.14
-4.12
-6.07
-8.20
-10.73
-13.82
-17.40
-21.09
-24.28
-26.23
-26.42
-24.66
-21.26
-16.88
-12.23
-7.91
-4.20
-1.11
1.48
3.63
5.35
6.56
7.19
7.29
7.01
6.54
6.07
5.70
5.43
5.22
5.04
4.91
4.90
5.11
5.58
6.23
6.89
7.29
7.17
6.39
4.97
3.10
1.07
-0.82
-2.37
-3.55
-4.46
-5.34
-6.45
-7.97
-10.01
-12.53
-15.31
-17.97
-20.01
-20.90
-20.19
-17.70
-13.59
-8.32
-2.58
3.04
8.14
12.59
16.51
20.06
23.29
26.08
28.22
29.50
29.89
29.55
28.86
28.17
27.75
27.64
27.66
27.55
27.12
26.32
25.28
24.17
23.08
21.95
20.59
18.82
16.56
13.96
11.28
8.77
6.56
4.56
2.57
0.38
-2.09
-4.77
-7.48
-9.99
-12.18
-13.97
-15.47
-16.83
-18.27
-19.99
-22.16
-24.87
-28.08
-31.57
-34.96
-37.71
-39.32
-39.36
-37.71
-34.51
-30.22
-25.38
-20.50
-15.95
-11.87
-8.25
-5.07
-2.34
-0.15
1.40
2.25
2.52
2.39
2.14
2.00
2.13
2.56
3.26
4.18
5.35
6.79
8.58
10.71
13.07
15.45
17.57
19.17
20.13
20.48
20.48
20.42
20.58
21.01
21.52
21.74
21.29
20.01
18.01
15.68
13.51
11.87
10.97
10.77
11.09
11.75
12.61
13.58
14.62
15.64
16.55
17.31
17.97
18.63
19.44
20.43
21.48
22.39
22.98
23.14
22.91
22.44
21.88
21.26
20.51
19.48
18.04
16.18
13.98
11.59
9.07
6.41
3.56
0.50
-2.62
-5.57
-8.09
-10.03
-11.41
-12.39
-13.15
-13.81
-14.35
-14.70
-14.81
-14.69
-14.41
-13.99
-13.42
-12.61
-11.53
-10.22
-8.80
-7.45
-6.33
-5.51
-5.02
-4.77
-4.72
-4.77
-4.90
-5.15
-5.60
-6.36
-7.49
-8.89
-10.31
-11.47
-12.13
-12.20
-11.73
-10.86
-9.70
-8.36
-6.89
-5.35
-3.88
-2.60
-1.68
-1.19
-1.13
-1.36
-1.70
-2.00
-2.14
-2.14
-2.05
-1.93
-1.88
-1.92
-2.11
-2.55
-3.34
-4.58
-6.22
-8.07
-9.79
-11.04
-11.63
-11.58
-11.10
-10.46
-9.86
-9.34
-8.86
-8.33
-7.72
-7.02
-6.30
-5.59
-4.94
-4.38
-3.94
-3.64
-3.54
-3.64
-3.91
-4.30
-4.76
-5.25
-5.77
-6.35
-6.94
-7.48
-7.86
-7.99
-7.84
-7.46
-6.98
-6.57
-6.38
-6.47
-6.80
-7.30
-7.88
-8.48
-9.04
-9.55
-9.93
-10.17
-10.30
-10.43
-10.67
-11.15
-11.90
-12.89
-14.05
-15.28
-16.48
-17.47
-18.04
-17.94
-16.98
-15.11
-12.50
-9.51
-6.51
-3.81
-1.56
0.28
1.82
3.13
4.19
4.88
5.07
4.71
3.92
2.95
2.13
1.73
1.89
2.61
3.77
5.22
6.76
8.15
9.13
9.48
9.04
7.83
6.08
4.17
2.52
1.41
0.95
1.03
1.38
1.68
1.61
0.96
-0.34
-2.26
-4.67
-7.36
-10.14
-12.74
-14.89
-16.31
-16.75
-16.13
-14.51
-12.12
-9.27
-6.23
-3.19
-0.26
2.45
4.78
6.51
7.48
7.68
7.32
6.73
6.31
6.29
6.71
7.42
8.20
8.85
9.27
9.43
9.38
9.22
9.00
8.71
8.25
7.43
6.06
4.04
1.40
-1.65
-4.82
-7.77
-10.26
-12.18
-13.61
-14.80
-16.08
-17.74
-19.92
-22.50
-25.10
-27.11
-27.97
-27.28
-25.02
-21.48
-17.21
-12.78
-8.58
-4.74
-1.21
2.11
5.28
8.16
10.57
12.29
13.23
13.46
13.11
12.37
11.34
10.13
8.84
7.66
6.76
6.23
6.06
6.09
6.15
6.09
5.85
5.38
4.61
3.47
1.88
-0.09
-2.28
-4.45
-6.43
-8.17
-9.82
-11.62
-13.70
-16.04
-18.43
-20.65
-22.61
-24.46
-26.58
-29.31
-32.74
-36.56
-40.08
-42.48
-43.13
-41.81
-38.77
-34.62
-30.03
-25.55
-21.48
-17.92
-14.92
-12.52
-10.78
-9.71
-9.15
-8.80
-8.27
-7.21
-5.37
-2.72
0.64
4.53
8.81
13.45
18.48
23.93
29.72
35.63
41.35
46.61
51.30
55.46
59.28
62.85
66.10
68.82
70.73
71.66
71.61
70.72
69.13
66.83
63.68
59.46
54.02
47.30
39.32
30.18
20.11
9.47
-1.14
-11.02
-19.54
-26.33
-31.53
-35.65
-39.37
-43.24
-47.41
-51.58
-55.17
-57.55
-58.36
-57.52
-55.24
-51.86
-47.65
-42.80
-37.44
-31.74
-26.02
-20.79
-16.67
-14.16
-13.54
-14.68
-17.14
-20.35
-23.82
-27.37
-31.03
-34.98
-39.25
-43.61
-47.60
-50.68
-52.45
-52.82
-51.94
-50.14
-47.77
-45.15
-42.51
-40.05
-37.81
-35.70
-33.42
-30.54
-26.64
-21.51
-15.25
-8.26
-1.04
5.98
12.60
18.88
24.93
30.78
36.30
41.22
45.31
48.51
51.01
53.15
55.28
57.56
59.95
62.19
63.99
65.12
65.50
65.13
64.09
62.43
60.19
57.39
54.06
50.27
46.12
41.73
37.27
32.88
28.71
24.83
21.24
17.84
14.44
10.83
6.86
2.52
-2.00
-6.28
-9.73
-11.76
-11.91
-10.06
-6.47
-1.74
3.46
8.49
13.00
16.83
20.03
22.67
24.76
26.29
27.22
27.52
27.22
26.38
25.10
23.52
21.73
19.82
17.80
15.62
13.24
10.64
7.89
5.09
2.29
-0.47
-3.21
-5.89
-8.39
-10.47
-11.92
-12.59
-12.50
-11.81
-10.69
-9.31
-7.73
-6.01
-4.17
-2.27
-0.39
1.32
2.67
3.39
3.20
1.94
-0.27
-2.97
-5.47
-7.16
-7.75
-7.42
-6.75
-6.39
-6.85
-8.29
-10.69
-14.00
-18.21
-23.37
-29.37
-35.82
-42.09
-47.49
-51.54
-54.12
-55.41
-55.74
-55.33
-54.25
-52.46
-49.95
-46.82
-43.29
-39.67
-36.27
-33.37
-31.18
-29.68
-28.62
-27.42
-25.33
-21.70
-16.19
-9.02
-0.82
7.58
15.50
22.52
28.50
33.33
36.91
39.13
40.13
40.46
41.07
42.96
46.81
52.60
59.57
66.56
72.44
76.52
78.75
79.46
79.12
78.00
76.16
73.51
69.99
65.68
60.76
55.48
50.06
44.66
39.45
34.56
30.11
26.11
22.44
18.90
15.33
11.81
8.69
6.54
5.94
7.14
9.91
13.44
16.62
18.38
18.03
15.45
11.06
5.54
-0.40
-6.21
-11.62
-16.65
-21.64
-27.19
-33.91
-42.09
-51.28
-60.18
-66.90
-69.64
-67.39
-60.41
-50.12
-38.43
-27.03
-16.76
-7.63
0.84
9.14
17.41
25.43
32.87
39.53
45.41
50.69
55.48
59.71
63.14
65.51
66.72
66.85
66.18
64.93
63.15
60.60
56.85
51.49
44.38
35.72
26.06
16.15
6.66
-1.92
-9.43
-16.01
-22.00
-27.84
-33.87
-40.18
-46.51
-52.25
-56.65
-59.05
-59.15
-57.11
-53.58
-49.39
-45.36
-42.04
-39.66
-38.20
-37.63
-37.92
-39.20
-41.62
-45.19
-49.72
-54.83
-60.05
-64.93
-69.21
-72.74
-75.52
-77.57
-78.92
-79.65
-79.93
-80.04
-80.27
-80.88
-81.92
-83.27
-84.65
-85.79
-86.48
-86.71
-86.58
-86.34
-86.24
-86.42
-86.89
-87.38
-87.40
-86.29
-83.40
-78.29
-70.90
-61.53
-50.75
-39.19
-27.30
-15.37
-3.58
7.84
18.52
28.10
36.38
43.46
49.70
55.58
61.46
67.51
73.68
79.85
85.89
91.65
96.92
101.39
104.78
106.90
107.80
107.66
106.65
104.79
101.97
98.05
93.08
87.36
81.33
75.38
69.59
63.71
57.31
50.09
42.18
34.22
27.24
22.27
19.96
20.37
22.94
26.80
31.09
35.18
38.77
41.71
43.95
45.43
46.15
46.23
45.94
45.66
45.67
46.11
46.86
47.61
48.01
47.78
46.84
45.30
43.44
41.57
39.92
38.59
37.53
36.56
35.47
34.09
32.31
30.07
27.37
24.24
20.76
17.02
13.15
9.23
5.33
1.45
-2.50
-6.65
-11.13
-15.87
-20.59
-24.80
-27.95
-29.65
-29.81
-28.65
-26.53
-23.81
-20.73
-17.46
-14.24
-11.40
-9.30
-8.14
-7.89
-8.24
-8.78
-9.20
-9.40
-9.44
-9.44
-9.47
-9.51
-9.52
-9.52
-9.60
-9.90
-10.57
-11.68
-13.24
-15.15
-17.26
-19.41
-21.43
-23.22
-24.77
-26.15
-27.44
-28.76
-30.16
-31.66
-33.18
-34.58
-35.55
-35.71
-34.66
-32.18
-28.30
-23.34
-17.86
-12.44
-7.50
-3.27
0.24
3.10
5.34
6.94
7.92
8.36
8.55
8.83
9.53
10.78
12.44
14.17
15.64
16.68
17.36
17.96
18.77
19.94
21.35
22.64
23.43
23.45
22.61
21.00
18.70
15.77
12.16
7.82
2.73
-3.00
-9.23
-15.81
-22.56
-29.26
-35.55
-40.94
-44.88
-46.98
-47.12
-45.59
-42.92
-39.71
-36.35
-32.91
-29.15
-24.76
-19.51
-13.38
-6.58
0.60
7.94
15.32
22.71
30.02
37.00
43.25
48.26
51.70
53.46
53.79
53.00
51.38
48.92
45.31
40.16
33.21
24.57
14.75
4.48
-5.56
-14.93
-23.58
-31.64
-39.28
-46.54
-53.27
-59.28
-64.37
-68.45
-71.42
-73.25
-73.86
-73.24
-71.52
-68.96
-65.96
-62.95
-60.25
-58.01
-56.14
-54.48
-52.82
-51.04
-49.09
-46.96
-44.60
-41.91
-38.75
-35.01
-30.69
-25.90
-20.83
-15.55
-10.03
-4.07
2.47
9.54
16.81
23.63
29.38
33.60
36.23
37.53
37.86
37.52
36.48
34.59
31.60
27.48
22.39
16.68
10.64
4.46
-1.79
-7.92
-13.59
-18.21
-21.19
-22.20
-21.39
-19.31
-16.76
-14.41
-12.64
-11.41
-10.52
-9.69
-8.81
-7.89
-6.98
-6.10
-5.08
-3.63
-1.49
1.56
5.60
10.54
16.19
22.27
28.47
34.44
39.93
44.77
48.97
52.66
56.02
59.17
62.10
64.63
66.55
67.72
68.17
68.10
67.81
67.52
67.27
66.90
66.05
64.24
61.00
56.02
49.27
41.04
31.90
22.58
13.76
5.97
-0.53
-5.67
-9.44
-11.83
-12.87
-12.70
-11.68
-10.34
-9.20
-8.60
-8.59
-9.04
-9.80
-10.85
-12.29
-14.22
-16.61
-19.22
-21.74
-23.98
-26.01
-28.14
-30.75
-34.07
-38.08
-42.49
-46.95
-51.11
-54.78
-57.83
-60.25
-61.99
-63.07
-63.62
-63.85
-64.15
-64.85
-66.10
-67.72
-69.16
-69.68
-68.58
-65.48
-60.45
-53.96
-46.69
-39.25
-32.07
-25.36
-19.19
-13.66
-8.91
-5.11
-2.33
-0.46
0.79
1.83
2.98
4.37
5.88
7.29
8.38
9.10
9.53
9.82
10.04
10.14
9.98
9.41
8.33
6.82
5.01
3.07
1.11
-0.78
-2.58
-4.27
-5.90
-7.57
-9.47
-11.77
-14.55
-17.68
-20.81
-23.45
-25.10
-25.38
-24.14
-21.50
-17.69
-13.05
-7.98
-2.88
1.83
5.82
8.88
11.04
12.45
13.32
13.79
13.95
13.88
13.70
13.67
14.03
14.93
16.27
17.76
18.95
19.51
19.28
18.36
17.00
15.46
13.91
12.42
10.96
9.50
8.00
6.42
4.72
2.86
0.81
-1.45
-3.88
-6.37
-8.84
-11.19
-13.38
-15.51
-17.81
-20.54
-23.73
-27.12
-30.09
-31.92
-32.00
-30.06
-26.33
-21.44
-16.22
-11.36
-7.25
-3.98
-1.54
0.17
1.30
1.97
2.28
2.26
1.97
1.43
0.69
-0.60
-2.54
-4.99
-7.56
-9.96
-12.03
-13.77
-15.28
-16.76
-19.23
-23.28
-28.82
-35.17
-41.66
-47.74
-53.06
-57.44
-60.91
-64.73
-69.55
-75.01
-80.14
-84.07
-86.45
-87.20
-86.44
-84.47
-83.08
-82.98
-83.25
-81.72
-76.33
-65.92
-50.40
-30.71
-0.41
39.26
80.25
112.57
130.57
134.21
127.05
114.40
102.21
96.00
98.33
109.75
128.60
151.57
174.26
191.63
199.80
197.22
184.67
163.58
136.76
107.88
80.46
56.86
37.95
23.42
12.74
5.20
-0.89
-6.84
-13.02
-19.06
-24.38
-28.64
-31.65
-33.37
-33.97
-34.21
-34.67
-35.53
-36.63
-37.75
-38.74
-39.55
-40.17
-40.68
-41.28
-41.87
-42.01
-41.05
-38.35
-33.60
-26.92
-18.82
-10.13
-1.79
5.46
11.14
15.14
17.62
18.91
19.38
19.35
19.07
18.68
18.31
18.05
17.93
17.99
18.21
18.54
18.94
19.32
19.57
19.59
19.32
18.73
17.80
16.56
14.96
12.96
10.50
7.59
4.34
0.95
-2.35
-5.39
-8.11
-10.54
-12.77
-14.91
-17.10
-19.49
-22.27
-25.50
-29.07
-32.57
-35.35
-36.70
-36.08
-33.35
-28.81
-23.07
-16.84
-10.72
-5.15
-0.37
3.51
6.45
8.44
9.60
10.09
10.10
9.86
9.54
9.33
9.33
9.59
10.09
10.74
11.45
12.11
12.71
13.16
13.40
13.27
12.66
11.52
9.87
7.85
5.65
3.40
1.23
-0.80
-2.68
-4.48
-6.29
-8.27
-10.54
-13.15
-16.04
-19.15
-22.29
-25.19
-27.43
-28.48
-27.83
-25.19
-20.66
-14.76
-8.26
-1.94
3.64
8.17
11.59
13.97
15.37
15.90
15.72
15.00
13.97
12.84
11.79
10.96
10.42
10.20
10.25
10.44
10.59
10.57
10.26
9.58
8.47
6.88
4.75
2.13
-0.83
-3.91
-6.90
-9.62
-12.02
-14.16
-16.08
-17.87
-19.55
-21.12
-22.61
-24.04
-25.43
-26.75
-27.86
-28.52
-28.41
-27.24
-24.84
-21.17
-16.36
-10.61
-4.16
2.82
10.15
17.64
25.00
31.90
38.06
43.31
47.65
51.16
53.97
56.12
57.56
58.19
57.98
57.06
55.77
54.57
53.82
53.67
53.90
54.02
53.45
51.84
49.10
45.50
41.41
37.17
32.88
28.52
24.00
19.29
14.41
9.50
4.68
0.10
-4.07
-7.76
-10.95
-13.78
-16.50
-19.39
-22.59
-26.01
-29.32
-32.05
-33.80
-34.32
-33.58
-31.73
-29.07
-25.98
-22.89
-20.17
-18.11
-16.79
-16.21
-16.28
-16.85
-17.86
-19.25
-20.93
-22.80
-24.69
-26.46
-28.03
-29.42
-30.68
-31.91
-33.12
-34.31
-35.47
-36.68
-38.05
-39.70
-41.57
-43.31
-44.24
-43.41
-39.99
-33.54
-24.31
-13.21
-1.52
9.53
19.16
27.16
33.83
39.57
44.63
48.97
52.38
54.70
56.02
56.76
57.51
58.86
61.17
64.51
68.68
73.35
78.05
82.32
85.65
87.54
87.54
85.29
80.66
73.78
65.05
55.08
44.54
34.02
23.90
14.33
5.28
-3.34
-11.60
-19.51
-26.99
-33.94
-40.18
-45.53
-49.84
-53.06
-55.32
-56.92
-58.23
-59.53
-60.85
-61.96
-62.53
-62.31
-61.30
-59.72
-57.91
-56.21
-54.79
-53.69
-52.86
-52.10
-51.12
-49.51
-46.83
-42.75
-37.27
-30.76
-23.87
-17.27
-11.46
-6.62
-2.64
0.63
3.31
5.35
6.64
7.12
6.96
6.48
6.10
6.18
6.87
8.12
9.67
11.28
12.73
13.90
14.78
15.35
15.59
15.47
14.95
14.05
12.86
11.44
9.84
8.07
6.09
3.95
1.76
-0.34
-2.23
-3.91
-5.53
-7.34
-9.57
-12.29
-15.47
-18.85
-22.03
-24.53
-25.85
-25.59
-23.63
-20.13
-15.58
-10.59
-5.72
-1.36
2.37
5.50
8.11
10.22
11.80
12.82
13.33
13.47
13.45
13.47
13.62
13.93
14.34
14.74
15.09
15.34
15.58
15.84
16.16
16.47
16.63
16.44
15.77
14.57
12.92
10.99
8.95
6.92
5.00
3.18
1.48
-0.16
-1.78
-3.39
-4.96
-6.47
-7.89
-9.26
-10.67
-12.27
-14.20
-16.53
-19.24
-22.19
-25.16
-27.77
-29.58
-30.15
-29.15
-26.54
-22.57
-17.72
-12.57
-7.61
-3.13
0.75
4.04
6.77
8.92
10.45
11.32
11.58
11.41
11.07
10.89
11.08
11.71
12.64
13.62
14.44
15.03
15.44
15.77
16.06
16.26
16.22
15.81
14.94
13.66
12.07
10.33
8.56
6.89
5.37
4.02
2.74
1.41
-0.14
-1.97
-3.98
-5.98
-7.74
-9.16
-10.33
-11.52
-13.04
-15.11
-17.77
-20.87
-24.08
-26.99
-29.15
-30.14
-29.64
-27.49
-23.79
-18.92
-13.43
-7.98
-3.06
1.03
4.24
6.68
8.52
9.88
10.80
11.32
11.48
11.44
11.38
11.52
11.98
12.79
13.85
14.99
16.06
16.93
17.53
17.84
17.88
17.64
17.14
16.40
15.45
14.28
12.91
11.35
9.66
7.96
6.38
5.05
4.01
3.10
2.10
0.77
-1.01
-3.19
-5.50
-7.64
-9.42
-10.76
-11.83
-12.85
-14.02
-15.54
-17.52
-20.03
-23.00
-26.22
-29.16
-31.16
-31.53
-29.88
-26.23
-21.10
-15.25
-9.45
-4.30
-0.07
3.23
5.71
7.48
8.66
9.28
9.44
9.24
8.89
8.60
8.55
8.81
9.35
10.02
10.68
11.29
11.89
12.59
13.43
14.28
14.89
14.97
14.37
13.12
11.44
9.62
7.91
6.47
5.31
4.32
3.31
2.10
0.59
-1.22
-3.16
-5.03
-6.60
-7.84
-8.85
-9.89
-11.22
-13.04
-15.41
-18.24
-21.27
-24.16
-26.42
-27.53
-27.02
-24.69
-20.64
-15.32
-9.44
-3.73
1.26
5.22
8.13
10.14
11.40
12.05
12.16
11.85
11.31
10.82
10.63
10.85
11.38
12.04
12.62
13.07
13.45
13.91
14.52
15.20
15.75
15.97
15.71
14.94
13.70
12.01
9.96
7.67
5.34
3.18
1.33
-0.24
-1.70
-3.25
-5.02
-6.93
-8.80
-10.43
-11.78
-12.94
-14.13
-15.58
-17.44
-19.76
-22.46
-25.30
-27.84
-29.48
-29.61
-27.83
-24.14
-18.97
-13.08
-7.27
-2.14
2.02
5.21
7.57
9.24
10.27
10.73
10.66
10.25
9.72
9.35
9.34
9.81
10.73
11.95
13.28
14.47
15.36
15.88
16.06
16.03
15.88
15.61
15.13
14.30
13.00
11.24
9.18
7.06
5.09
3.42
2.00
0.71
-0.61
-2.06
-3.66
-5.33
-7.00
-8.61
-10.14
-11.66
-13.33
-15.29
-17.70
-20.57
-23.78
-27.09
-30.17
-32.60
-33.96
-33.89
-32.14
-28.67
-23.72
-17.78
-11.54
-5.62
-0.50
3.60
6.71
8.98
10.54
11.52
12.02
12.15
12.16
12.27
12.71
13.57
14.80
16.21
17.53
18.57
19.21
19.48
19.50
19.41
19.27
19.02
18.53
17.62
16.22
14.42
12.40
10.40
8.56
6.90
5.32
3.70
1.98
0.18
-1.64
-3.42
-5.17
-6.91
-8.69
-10.52
-12.38
-14.28
-16.29
-18.55
-21.24
-24.39
-27.86
-31.20
-33.77
-34.89
-34.00
-30.96
-26.02
-19.82
-13.18
-6.85
-1.37
2.98
6.19
8.34
9.60
10.19
10.31
10.21
10.06
10.00
10.13
10.47
11.06
11.89
12.93
14.09
15.27
16.36
17.29
18.01
18.47
18.58
18.22
17.29
15.83
13.95
11.90
9.89
8.01
6.19
4.27
2.11
-0.30
-2.83
-5.20
-7.21
-8.76
-9.98
-11.17
-12.67
-14.72
-17.39
-20.54
-23.87
-26.95
-29.34
-30.54
-30.15
-27.94
-23.92
-18.46
-12.16
-5.77
0.03
4.77
8.28
10.67
12.18
13.10
13.61
13.79
13.73
13.50
13.24
13.13
13.31
13.81
14.53
15.32
16.03
16.56
16.95
17.22
17.34
17.19
16.58
15.35
13.49
11.16
8.65
6.26
4.14
2.22
0.33
-1.73
-3.98
-6.26
-8.29
-9.90
-11.12
-12.27
-13.84
-16.20
-19.49
-23.43
-27.42
-30.69
-32.48
-32.26
-29.90
-25.62
-19.96
-13.62
-7.23
-1.34
3.73
7.82
10.89
13.02
14.35
15.05
15.32
15.30
15.10
14.79
14.51
14.36
14.51
15.03
15.90
16.97
18.01
18.83
19.26
19.19
18.55
17.31
15.50
13.25
10.78
8.37
6.18
4.24
2.43
0.56
-1.48
-3.68
-5.90
-7.94
-9.74
-11.34
-12.91
-14.72
-16.97
-19.79
-23.11
-26.65
-29.89
-32.19
-32.89
-31.51
-27.94
-22.49
-15.83
-8.76
-2.06
3.75
8.39
11.84
14.24
15.80
16.77
17.37
17.81
18.23
18.75
19.43
20.27
21.22
22.10
22.74
22.98
22.77
22.19
21.41
20.60
19.80
18.94
17.91
16.60
15.02
13.28
11.55
9.91
8.39
6.91
5.43
3.88
2.25
0.52
-1.34
-3.33
-5.43
-7.54
-9.55
-11.39
-13.09
-14.80
-16.72
-19.10
-22.05
-25.58
-29.42
-33.11
-35.95
-37.26
-36.52
-33.55
-28.58
-22.21
-15.16
-8.20
-1.89
3.39
7.53
10.55
12.57
13.76
14.36
14.60
14.71
14.92
15.38
16.13
17.11
18.15
19.08
19.80
20.27
20.54
20.62
20.43
19.87
18.86
17.42
15.74
14.03
12.43
10.98
9.53
7.93
6.08
3.98
1.70
-0.61
-2.83
-4.87
-6.67
-8.23
-9.58
-10.86
-12.28
-14.09
-16.52
-19.63
-23.26
-26.91
-29.82
-31.15
-30.25
-26.90
-21.46
-14.75
-7.83
-1.62
3.37
7.10
9.83
11.88
13.42
14.46
14.90
14.74
14.16
13.48
13.01
12.97
13.37
14.09
14.95
15.82
16.62
17.33
17.88
18.15
17.96
17.20
15.87
14.10
12.13
10.16
8.26
6.37
4.35
2.14
-0.18
-2.43
-4.40
-5.97
-7.22
-8.39
-9.74
-11.51
-13.82
-16.66
-19.90
-23.26
-26.29
-28.43
-29.07
-27.78
-24.44
-19.33
-13.09
-6.52
-0.39
4.77
8.72
11.52
13.35
14.42
14.89
14.81
14.31
13.57
12.88
12.53
12.71
13.40
14.43
15.53
16.50
17.23
17.68
17.83
17.62
16.96
15.76
14.05
11.99
9.81
7.69
5.74
3.92
2.12
0.22
-1.86
-4.14
-6.52
-8.85
-10.97
-12.76
-14.24
-15.57
-17.09
-19.15
-21.91
-25.18
-28.35
-30.56
-30.99
-29.19
-25.28
-19.90
-13.92
-8.15
-3.04
1.28
4.93
8.02
10.60
12.56
13.83
14.41
14.49
14.31
14.13
14.11
14.26
14.55
14.93
15.38
15.95
16.65
17.42
18.13
18.56
18.47
17.74
16.33
14.39
12.18
9.94
7.88
6.10
4.58
3.23
1.92
0.49
-1.16
-3.08
-5.25
-7.53
-9.71
-11.63
-13.21
-14.57
-16.02
-17.93
-20.57
-23.92
-27.55
-30.70
-32.55
-32.43
-30.11
-25.85
-20.22
-13.95
-7.70
-1.95
3.01
7.02
10.01
12.01
13.13
13.56
13.56
13.42
13.38
13.56
13.96
14.50
15.02
15.41
15.62
15.74
15.87
16.10
16.41
16.69
16.73
16.35
15.42
13.94
12.01
9.84
7.66
5.65
3.91
2.37
0.85
-0.83
-2.78
-4.95
-7.18
-9.26
-11.05
-12.55
-13.86
-15.18
-16.75
-18.75
-21.27
-24.18
-27.12
-29.48
-30.53
-29.72
-26.80
-22.04
-16.09
-9.83
-4.03
0.83
4.59
7.33
9.24
10.48
11.15
11.35
11.25
11.03
10.89
10.96
11.23
11.65
12.14
12.68
13.26
13.90
14.49
14.84
14.74
14.06
12.82
11.17
9.36
7.60
6.00
4.52
3.05
1.45
-0.39
-2.44
-4.59
-6.59
-8.27
-9.58
-10.65
-11.78
-13.27
-15.30
-17.86
-20.69
-23.35
-25.33
-26.13
-25.41
-23.05
-19.22
-14.36
-9.09
-4.00
0.48
4.18
7.16
9.54
11.37
12.60
13.12
12.95
12.29
11.48
10.88
10.74
11.07
11.72
12.46
13.12
13.60
13.91
14.02
13.90
13.47
12.63
11.39
9.85
8.16
6.48
4.88
3.33
1.75
0.03
-1.87
-3.91
-5.95
-7.84
-9.51
-10.95
-12.30
-13.73
-15.42
-17.50
-19.97
-22.74
-25.50
-27.78
-29.01
-28.64
-26.39
-22.35
-17.00
-11.07
-5.27
-0.13
4.09
7.37
9.78
11.45
12.46
12.93
13.00
12.85
12.64
12.46
12.42
12.57
12.95
13.58
14.39
15.25
15.97
16.38
16.38
15.95
15.14
14.04
12.73
11.23
9.57
7.79
5.96
4.15
2.42
0.72
-1.05
-3.02
-5.23
-7.56
-9.78
-11.61
-12.95
-13.94
-14.95
-16.43
-18.73
-21.87
-25.50
-29.01
-31.63
-32.68
-31.72
-28.65
-23.77
-17.64
-10.99
-4.54
1.14
5.73
9.13
11.45
12.86
13.58
13.82
13.75
13.57
13.43
13.47
13.80
14.44
15.32
16.31
17.27
18.05
18.59
18.87
18.87
18.58
17.95
16.96
15.54
13.71
11.53
9.20
6.96
5.06
3.68
2.78
2.18
1.59
0.75
-0.50
-2.15
-4.08
-6.09
-8.02
-9.78
-11.33
-12.77
-14.29
-16.18
-18.69
-21.89
-25.52
-29.03
-31.66
-32.68
-31.65
-28.54
-23.75
-17.95
-11.84
-5.97
-0.69
3.83
7.50
10.24
12.02
12.83
12.82
12.32
11.72
11.37
11.50
12.09
12.98
13.93
14.73
15.29
15.66
15.90
16.07
16.15
16.03
15.59
14.72
13.45
11.86
10.07
8.24
6.44
4.67
2.90
1.08
-0.81
-2.76
-4.67
-6.48
-8.14
-9.65
-11.12
-12.71
-14.59
-16.85
-19.45
-22.15
-24.52
-26.05
-26.25
-24.83
-21.80
-17.49
-12.46
-7.30
-2.47
1.74
5.26
8.12
10.33
11.85
12.65
12.73
12.21
11.38
10.54
9.98
9.87
10.20
10.83
11.52
12.10
12.45
12.54
12.41
12.07
11.53
10.78
9.81
8.62
7.25
5.68
3.89
1.86
-0.37
-2.69
-4.90
-6.86
-8.47
-9.79
-10.94
-12.10
-13.40
-14.95
-16.81
-19.00
-21.41
-23.70
-25.34
-25.69
-24.27
-20.95
-16.09
-10.42
-4.77
0.19
4.14
7.09
9.25
10.84
11.97
12.67
12.90
12.72
12.26
11.73
11.34
11.21
11.38
11.78
12.30
12.87
13.42
13.87
14.13
14.12
13.71
12.86
11.52
9.77
7.74
5.60
3.53
1.66
-0.02
-1.57
-3.11
-4.72
-6.37
-7.97
-9.42
-10.66
-11.77
-12.89
-14.23
-15.99
-18.26
-21.01
-24.07
-27.05
-29.44
-30.64
-30.14
-27.71
-23.52
-18.09
-12.12
-6.29
-1.09
3.22
6.59
9.09
10.79
11.81
12.26
12.29
12.07
11.73
11.45
11.33
11.45
11.83
12.43
13.11
13.71
14.11
14.22
14.04
13.58
12.89
11.96
10.78
9.37
7.73
5.91
3.95
1.91
-0.13
-2.08
-3.86
-5.43
-6.83
-8.13
-9.43
-10.78
-12.22
-13.76
-15.48
-17.48
-19.85
-22.50
-25.09
-26.99
-27.53
-26.25
-23.11
-18.55
-13.30
-8.10
-3.41
0.59
4.00
6.87
9.15
10.71
11.43
11.37
10.79
10.06
9.50
9.30
9.49
10.02
10.79
11.75
12.82
13.88
14.77
15.33
15.43
15.02
14.12
12.82
11.24
9.47
7.60
5.68
3.75
1.80
-0.17
-2.17
-4.12
-5.91
-7.41
-8.55
-9.40
-10.15
-11.07
-12.41
-14.28
-16.65
-19.32
-21.95
-24.09
-25.26
-25.01
-23.10
-19.58
-14.81
-9.40
-3.99
0.85
4.79
7.75
9.79
11.04
11.62
11.62
11.11
10.28
9.37
8.71
8.58
9.12
10.23
11.62
12.89
13.76
14.10
13.98
13.56
12.94
12.15
11.12
9.78
8.16
6.34
4.45
2.55
0.67
-1.19
-3.03
-4.79
-6.37
-7.70
-8.80
-9.81
-11.00
-12.65
-14.88
-17.55
-20.18
-22.09
-22.60
-21.29
-18.14
-13.56
-8.24
-2.95
1.74
5.48
8.19
9.96
10.99
11.46
11.56
11.46
11.25
11.02
10.78
10.59
10.47
10.49
10.74
11.27
12.03
12.89
13.64
14.06
13.99
13.37
12.27
10.82
9.19
7.52
5.90
4.36
2.88
1.37
-0.24
-1.99
-3.84
-5.71
-7.46
-8.97
-10.23
-11.32
-12.40
-13.69
-15.38
-17.60
-20.24
-22.96
-25.20
-26.30
-25.77
-23.38
-19.34
-14.23
-8.75
-3.57
0.85
4.33
6.91
8.72
9.93
10.71
11.19
11.48
11.63
11.69
11.69
11.71
11.78
11.94
12.16
12.39
12.61
12.82
13.03
13.21
13.25
12.92
12.05
10.56
8.57
6.37
4.29
2.52
1.05
-0.26
-1.63
-3.13
-4.71
-6.22
-7.55
-8.67
-9.69
-10.75
-12.02
-13.61
-15.53
-17.79
-20.26
-22.68
-24.63
-25.61
-25.14
-23.01
-19.34
-14.59
-9.47
-4.67
-0.66
2.35
4.45
5.84
6.75
7.30
7.57
7.62
7.55
7.51
7.64
8.01
8.62
9.36
10.08
10.63
10.94
10.99
10.80
10.37
9.73
8.89
7.88
6.78
5.64
4.50
3.31
1.96
0.36
-1.54
-3.63
-5.70
-7.53
-9.02
-10.16
-11.15
-12.17
-13.40
-14.89
-16.57
-18.29
-19.79
-20.75
-20.76
-19.45
-16.65
-12.48
-7.48
-2.39
2.05
5.39
7.58
8.87
9.59
9.98
10.07
9.84
9.31
8.66
8.16
8.06
8.38
8.97
9.53
9.86
9.90
9.75
9.60
9.55
9.56
9.47
9.03
8.06
6.49
4.41
2.01
-0.45
-2.76
-4.76
-6.35
-7.53
-8.37
-8.98
-9.55
-10.30
-11.45
-13.13
-15.35
-17.93
-20.49
-22.58
-23.68
-23.42
-21.62
-18.40
-14.13
-9.37
-4.68
-0.50
2.92
5.55
7.49
8.86
9.73
10.09
10.02
9.67
9.32
9.25
9.60
10.33
11.23
12.00
12.46
12.59
12.52
12.44
12.42
12.40
12.22
11.69
10.78
9.56
8.17
6.81
5.55
4.43
3.37
2.27
0.96
-0.65
-2.60
-4.77
-6.96
-8.90
-10.44
-11.58
-12.47
-13.38
-14.60
-16.33
-18.60
-21.27
-23.98
-26.21
-27.42
-27.13
-25.15
-21.59
-16.89
-11.63
-6.41
-1.72
2.18
5.19
7.38
8.88
9.86
10.46
10.74
10.74
10.52
10.21
10.01
10.12
10.62
11.45
12.40
13.27
13.93
14.39
14.71
14.93
14.99
14.79
14.20
13.16
11.71
9.98
8.14
6.37
4.82
3.50
2.35
1.19
-0.19
-1.86
-3.79
-5.76
-7.51
-8.88
-9.92
-10.83
-11.88
-13.30
-15.14
-17.39
-19.93
-22.55
-24.93
-26.59
-26.98
-25.67
-22.50
-17.77
-12.15
-6.48
-1.53
2.29
4.91
6.56
7.57
8.20
8.58
8.73
8.64
8.37
8.03
7.80
7.83
8.16
8.78
9.59
10.48
11.33
12.01
12.36
12.28
11.72
10.73
9.46
8.03
6.55
5.02
3.41
1.73
0.03
-1.58
-2.98
-4.17
-5.22
-6.24
-7.35
-8.62
-10.15
-12.02
-14.30
-16.94
-19.68
-22.02
-23.37
-23.18
-21.20
-17.57
-12.76
-7.45
-2.31
2.15
5.69
8.26
9.96
10.98
11.47
11.60
11.50
11.31
11.12
11.03
11.09
11.31
11.67
12.08
12.48
12.77
12.92
12.90
12.72
12.33
11.68
10.70
9.36
7.74
6.02
4.41
3.05
1.94
0.94
-0.21
-1.66
-3.45
-5.44
-7.42
-9.21
-10.78
-12.25
-13.83
-15.75
-18.12
-20.84
-23.59
-25.87
-27.08
-26.70
-24.47
-20.48
-15.20
-9.33
-3.65
1.25
5.08
7.84
9.72
10.94
11.62
11.86
11.70
11.34
11.02
11.00
11.41
12.16
13.05
13.83
14.35
14.61
14.73
14.82
14.85
14.67
14.09
12.98
11.37
9.50
7.67
6.10
4.83
3.70
2.44
0.83
-1.15
-3.34
-5.45
-7.23
-8.63
-9.77
-10.91
-12.33
-14.24
-16.70
-19.56
-22.48
-24.96
-26.41
-26.32
-24.40
-20.76
-15.86
-10.39
-5.09
-0.48
3.20
5.98
7.99
9.33
10.03
10.09
9.60
8.83
8.15
7.95
8.42
9.45
10.72
11.84
12.52
12.72
12.56
12.26
11.92
11.52
10.94
10.06
8.84
7.35
5.66
3.84
1.90
-0.18
-2.36
-4.54
-6.56
-8.31
-9.77
-11.02
-12.25
-13.68
-15.51
-17.85
-20.60
-23.42
-25.71
-26.79
-26.09
-23.37
-18.92
-13.41
-7.69
-2.51
1.67
4.77
6.91
8.29
9.10
9.42
9.36
9.06
8.69
8.45
8.50
8.92
9.66
10.59
11.52
12.28
12.73
12.83
12.61
12.18
11.61
10.93
10.10
8.98
7.50
5.63
3.45
1.16
-1.06
-3.07
-4.78
-6.24
-7.54
-8.79
-10.14
-11.74
-13.76
-16.27
-19.14
-21.98
-24.16
-24.99
-23.98
-21.03
-16.53
-11.14
-5.65
-0.64
3.56
6.89
9.40
11.16
12.19
12.58
12.45
12.02
11.53
11.15
10.98
11.03
11.31
11.85
12.70
13.83
15.10
16.24
16.91
16.86
15.97
14.37
12.31
10.12
8.07
6.26
4.68
3.18
1.53
-0.43
-2.74
-5.26
-7.71
-9.78
-11.30
-12.36
-13.28
-14.48
-16.36
-19.01
-22.28
-25.70
-28.59
-30.26
-30.13
-27.88
-23.59
-17.72
-11.06
-4.54
1.09
5.38
8.27
10.03
11.04
11.69
12.23
12.78
13.35
13.89
14.34
14.69
14.94
15.17
15.46
15.86
16.33
16.80
17.12
17.17
16.84
16.11
14.96
13.44
11.62
9.65
7.68
5.85
4.20
2.66
1.12
-0.60
-2.55
-4.68
-6.82
-8.77
-10.41
-11.72
-12.85
-14.07
-15.65
-17.85
-20.70
-23.99
-27.20
-29.60
-30.45
-29.21
-25.81
-20.64
-14.47
-8.23
-2.70
1.67
4.85
7.07
8.70
9.95
10.91
11.50
11.64
11.36
10.87
10.46
10.44
10.97
11.98
13.28
14.57
15.61
16.23
16.34
15.91
14.97
13.57
11.84
9.95
8.10
6.39
4.83
3.33
1.76
0.02
-1.83
-3.66
-5.32
-6.72
-7.94
-9.15
-10.59
-12.49
-14.93
-17.81
-20.84
-23.50
-25.21
-25.43
-23.82
-20.38
-15.46
-9.69
-3.80
1.56
5.96
9.20
11.31
12.50
13.01
13.08
12.89
12.56
12.20
11.95
11.94
12.27
12.95
13.88
14.87
15.72
16.27
16.48
16.37
15.97
15.26
14.18
12.72
10.89
8.81
6.64
4.53
2.56
0.71
-1.11
-3.01
-5.00
-7.02
-8.97
-10.82
-12.65
-14.66
-17.03
-19.83
-22.90
-25.83
-28.04
-28.95
-28.09
-25.32
-20.81
-15.05
-8.72
-2.52
2.99
7.47
10.85
13.21
14.73
15.60
16.01
16.10
15.97
15.75
15.58
15.65
16.13
17.07
18.35
19.61
20.44
20.50
19.77
18.46
16.92
15.42
14.00
12.55
10.93
9.12
7.26
5.52
3.97
2.49
0.89
-1.02
-3.22
-5.56
-7.74
-9.52
-10.77
-11.56
-12.11
-12.75
-13.85
-15.69
-18.43
-21.96
-25.85
-29.40
-31.79
-32.27
-30.42
-26.31
-20.50
-13.86
-7.28
-1.45
3.29
6.93
9.66
11.64
13.00
13.79
14.05
13.91
13.56
13.19
12.98
13.02
13.32
13.84
14.48
15.14
15.69
16.03
16.08
15.76
15.06
14.00
12.64
11.08
9.33
7.44
5.34
3.04
0.57
-1.92
-4.21
-6.14
-7.63
-8.77
-9.72
-10.66
-11.74
-13.09
-14.88
-17.23
-20.12
-23.26
-26.03
-27.62
-27.37
-24.94
-20.59
-14.99
-9.05
-3.55
1.05
4.63
7.29
9.18
10.42
11.03
11.03
10.54
9.77
9.05
8.69
8.93
9.77
11.01
12.33
13.37
13.90
13.84
13.31
12.49
11.54
10.56
9.53
8.32
6.84
5.02
2.90
0.63
-1.60
-3.60
-5.26
-6.62
-7.80
-9.01
-10.40
-12.09
-14.10
-16.41
-18.87
-21.26
-23.17
-24.11
-23.58
-21.29
-17.28
-12.02
-6.23
-0.70
3.96
7.49
9.92
11.48
12.39
12.79
12.77
12.40
11.86
11.39
11.20
11.41
11.99
12.78
13.59
14.28
14.81
15.18
15.38
15.37
15.01
14.18
12.83
11.00
8.88
6.68
4.62
2.80
1.22
-0.22
-1.64
-3.16
-4.81
-6.57
-8.35
-10.03
-11.55
-12.94
-14.39
-16.17
-18.51
-21.47
-24.71
-27.61
-29.36
-29.27
-27.04
-22.85
-17.28
-11.15
-5.17
0.18
4.67
8.24
10.92
12.74
13.72
13.96
13.65
13.04
12.46
12.16
12.27
12.74
13.44
14.21
14.93
15.55
16.07
16.48
16.68
16.55
15.92
14.71
12.92
10.70
8.30
5.97
3.94
2.28
0.93
-0.29
-1.58
-3.08
-4.78
-6.59
-8.36
-10.02
-11.61
-13.25
-15.17
-17.54
-20.40
-23.56
-26.60
-28.88
-29.75
-28.73
-25.66
-20.85
-14.94
-8.69
-2.83
2.19
6.16
9.05
10.92
11.85
11.93
11.34
10.31
9.15
8.19
7.67
7.70
8.25
9.13
10.13
11.00
11.58
11.80
11.68
11.31
10.76
10.05
9.13
7.88
6.23
4.17
1.81
-0.62
-2.90
-4.84
-6.42
-7.78
-9.14
-10.77
-12.84
-15.40
-18.21
-20.89
-22.86
-23.57
-22.63
-19.93
-15.76
-10.70
-5.40
-0.49
3.67
6.94
9.36
11.06
12.13
12.60
12.45
11.74
10.63
9.42
8.48
8.11
8.40
9.20
10.18
11.02
11.52
11.64
11.51
11.24
10.84
10.24
9.29
7.93
6.20
4.24
2.16
0.04
-2.10
-4.25
-6.32
-8.24
-9.94
-11.44
-12.93
-14.67
-16.83
-19.40
-22.04
-24.19
-25.19
-24.57
-22.15
-18.16
-13.14
-7.78
-2.69
1.73
5.31
8.10
10.20
11.68
12.58
12.92
12.74
12.20
11.54
11.04
10.92
11.23
11.90
12.69
13.38
13.80
13.86
13.56
12.96
12.09
10.98
9.68
8.25
6.76
5.25
3.72
2.09
0.33
-1.57
-3.53
-5.47
-7.28
-8.99
-10.67
-12.39
-14.23
-16.21
-18.35
-20.65
-23.08
-25.48
-27.51
-28.67
-28.44
-26.47
-22.75
-17.67
-11.85
-6.04
-0.80
3.50
6.81
9.25
10.98
12.16
12.91
13.30
13.36
13.17
12.82
12.45
12.26
12.40
12.95
13.80
14.75
15.53
15.93
15.86
15.34
14.46
13.31
11.93
10.33
8.55
6.69
4.88
3.19
1.61
0.01
-1.70
-3.56
-5.47
-7.23
-8.71
-9.92
-11.03
-12.34
-14.14
-16.62
-19.71
-23.10
-26.24
-28.43
-29.01
-27.55
-24.00
-18.77
-12.62
-6.41
-0.91
3.47
6.66
8.87
10.37
11.39
11.99
12.21
12.10
11.78
11.44
11.26
11.35
11.71
12.26
12.93
13.63
14.27
14.76
14.93
14.64
13.80
12.45
10.71
8.77
6.80
4.91
3.13
1.47
-0.09
-1.55
-2.94
-4.29
-5.63
-7.00
-8.40
-9.84
-11.33
-12.95
-14.76
-16.88
-19.33
-21.93
-24.30
-25.86
-26.04
-24.47
-21.15
-16.47
-11.08
-5.65
-0.74
3.33
6.50
8.80
10.35
11.21
11.47
11.17
10.45
9.53
8.72
8.33
8.51
9.19
10.13
10.97
11.45
11.56
11.43
11.28
11.20
11.06
10.58
9.49
7.66
5.20
2.42
-0.30
-2.62
-4.38
-5.62
-6.51
-7.34
-8.40
-9.96
-12.19
-15.10
-18.42
-21.61
-23.91
-24.53
-22.96
-19.15
-13.62
-7.29
-1.16
3.99
7.76
10.18
11.49
12.02
12.06
11.85
11.56
11.31
11.21
11.29
11.58
12.04
12.65
13.36
14.13
14.91
15.60
16.11
16.34
16.19
15.60
14.50
12.91
10.89
8.63
6.33
4.21
2.38
0.83
-0.56
-1.97
-3.54
-5.29
-7.13
-8.89
-10.45
-11.82
-13.15
-14.65
-16.56
-19.00
-21.86
-24.85
-27.44
-29.03
-29.04
-27.14
-23.37
-18.12
-12.03
-5.88
-0.33
4.19
7.55
9.85
11.33
12.22
12.70
12.85
12.72
12.40
12.06
11.91
12.13
12.74
13.59
14.49
15.22
15.72
15.99
16.04
15.84
15.24
14.09
12.37
10.18
7.80
5.47
3.37
1.50
-0.24
-2.01
-3.91
-5.87
-7.73
-9.29
-10.45
-11.33
-12.22
-13.50
-15.48
-18.21
-21.41
-24.53
-26.85
-27.74
-26.76
-23.84
-19.28
-13.68
-7.76
-2.24
2.39
5.92
8.41
10.07
11.16
11.84
12.24
12.37
12.28
12.01
11.65
11.35
11.22
11.37
11.79
12.39
13.01
13.48
13.66
13.54
13.12
12.47
11.61
10.54
9.26
7.78
6.19
4.53
2.84
1.08
-0.80
-2.85
-5.00
-7.13
-9.05
-10.62
-11.79
-12.73
-13.72
-15.11
-17.14
-19.80
-22.72
-25.22
-26.53
-26.03
-23.48
-19.11
-13.55
-7.60
-2.00
2.75
6.44
9.12
10.94
12.03
12.48
12.31
11.64
10.66
9.63
8.81
8.38
8.43
8.89
9.62
10.48
11.35
12.12
12.67
12.87
12.66
12.01
10.98
9.61
7.95
5.98
3.72
1.26
-1.21
-3.48
-5.37
-6.87
-8.11
-9.35
-10.85
-12.74
-15.02
-17.53
-19.99
-22.08
-23.41
-23.65
-22.50
-19.90
-15.99
-11.17
-5.98
-0.97
3.39
6.88
9.43
11.12
12.10
12.48
12.39
11.97
11.35
10.73
10.28
10.14
10.34
10.83
11.45
12.05
12.48
12.72
12.78
12.71
12.49
12.03
11.21
9.94
8.26
6.30
4.26
2.31
0.51
-1.14
-2.71
-4.24
-5.77
-7.29
-8.80
-10.29
-11.79
-13.29
-14.84
-16.52
-18.48
-20.80
-23.43
-26.06
-28.12
-28.92
-27.91
-24.89
-20.11
-14.21
-8.03
-2.31
2.42
5.97
8.42
9.96
10.84
11.20
11.17
10.85
10.38
9.92
9.67
9.78
10.28
11.08
11.98
12.78
13.31
13.53
13.46
13.18
12.72
12.06
11.10
9.78
8.09
6.11
4.01
1.98
0.13
-1.51
-3.04
-4.57
-6.17
-7.86
-9.55
-11.21
-12.83
-14.53
-16.40
-18.56
-20.96
-23.40
-25.52
-26.83
-26.88
-25.33
-22.15
-17.59
-12.24
-6.77
-1.86
2.10
5.02
7.05
8.44
9.36
9.85
9.86
9.38
8.57
7.72
7.22
7.27
7.89
8.82
9.66
10.14
10.13
9.81
9.42
9.09
8.73
8.03
6.70
4.63
2.02
-0.72
-3.17
-5.11
-6.57
-7.76
-8.98
-10.40
-12.10
-14.08
-16.25
-18.50
-20.58
-22.07
-22.51
-21.50
-18.90
-14.94
-10.09
-5.03
-0.31
3.66
6.70
8.81
10.05
10.54
10.39
9.75
8.78
7.71
6.77
6.16
6.02
6.36
7.06
7.91
8.64
9.07
9.12
8.83
8.35
7.78
7.12
6.27
5.08
3.47
1.49
-0.72
-2.93
-4.97
-6.81
-8.52
-10.28
-12.30
-14.70
-17.47
-20.34
-22.85
-24.38
-24.40
-22.58
-18.98
-14.03
-8.44
-2.96
1.85
5.67
8.50
10.45
11.71
12.42
12.63
12.38
11.73
10.82
9.88
9.17
8.93
9.25
10.06
11.13
12.14
12.79
12.95
12.62
11.95
11.11
10.19
9.16
7.96
6.49
4.72
2.71
0.54
-1.65
-3.75
-5.71
-7.48
-9.09
-10.59
-12.09
-13.73
-15.65
-17.97
-20.63
-23.41
-25.88
-27.48
-27.67
-26.13
-22.89
-18.34
-13.06
-7.66
-2.63
1.76
5.38
8.16
10.08
11.20
11.62
11.54
11.23
10.90
10.72
10.76
11.02
11.45
11.98
12.50
12.92
13.13
13.12
12.92
12.60
12.13
11.41
10.27
8.55
6.22
3.44
0.51
-2.21
-4.47
-6.16
-7.41
-8.43
-9.52
-10.96
-12.96
-15.62
-18.85
-22.28
-25.26
-27.04
-27.00
-24.85
-20.83
-15.59
-9.95
-4.67
-0.19
3.38
6.14
8.21
9.65
10.43
10.57
10.15
9.46
8.84
8.60
8.89
9.66
10.65
11.57
12.18
12.40
12.29
11.98
11.54
10.97
10.13
8.93
7.29
5.32
3.20
1.18
-0.58
-2.10
-3.53
-5.11
-7.05
-9.49
-12.40
-15.59
-18.76
-21.49
-23.30
-23.72
-22.45
-19.45
-15.04
-9.79
-4.41
0.49
4.53
7.63
9.84
11.30
12.09
12.29
11.98
11.35
10.68
10.26
10.29
10.79
11.62
12.51
13.21
13.59
13.62
13.42
13.08
12.68
12.21
11.58
10.65
9.28
7.38
4.97
2.21
-0.65
-3.26
-5.37
-6.91
-8.02
-9.05
-10.39
-12.37
-15.08
-18.34
-21.70
-24.54
-26.21
-26.20
-24.28
-20.60
-15.62
-9.98
-4.34
0.77
5.07
8.45
10.93
12.60
13.52
13.81
13.61
13.11
12.54
12.14
12.08
12.43
13.13
14.02
14.86
15.42
15.56
15.25
14.58
13.69
12.69
11.61
10.35
8.82
6.96
4.82
2.53
0.30
-1.72
-3.49
-5.07
-6.62
-8.26
-10.03
-11.93
-13.92
-16.02
-18.31
-20.79
-23.21
-25.11
-25.83
-24.79
-21.81
-17.12
-11.38
-5.36
0.25
5.04
8.88
11.79
13.84
15.14
15.79
15.91
15.69
15.33
15.03
14.88
14.96
15.25
15.67
16.15
16.58
16.90
17.05
17.00
16.70
16.12
15.21
14.00
12.50
10.77
8.89
6.88
4.80
2.71
0.67
-1.22
-2.94
-4.50
-5.96
-7.40
-8.93
-10.59
-12.47
-14.62
-17.15
-20.04
-23.13
-25.98
-27.95
-28.39
-26.84
-23.28
-18.17
-12.27
-6.41
-1.21
3.03
6.36
8.96
11.00
12.51
13.42
13.67
13.34
12.70
12.12
11.95
12.31
13.12
14.07
14.83
15.20
15.17
14.90
14.55
14.15
13.61
12.72
11.35
9.48
7.25
4.91
2.67
0.64
-1.18
-2.88
-4.55
-6.22
-7.89
-9.52
-11.11
-12.72
-14.45
-16.42
-18.61
-20.82
-22.66
-23.62
-23.25
-21.36
-18.07
-13.76
-9.00
-4.28
0.04
3.82
6.97
9.47
11.25
12.27
12.55
12.26
11.63
10.98
10.57
10.52
10.84
11.45
12.21
13.01
13.76
14.34
14.64
14.52
13.95
13.01
11.86
10.61
9.28
7.79
6.00
3.89
1.55
-0.77
-2.85
-4.58
-5.99
-7.23
-8.43
-9.73
-11.20
-12.99
-15.20
-17.81
-20.60
-23.02
-24.40
-24.13
-21.95
-18.05
-13.01
-7.61
-2.52
1.83
5.29
7.93
9.85
11.17
11.96
12.26
12.12
11.62
10.91
10.17
9.63
9.52
9.95
10.89
12.12
13.32
14.17
14.48
14.16
13.26
11.91
10.25
8.43
6.60
4.87
3.36
2.05
0.88
-0.31
-1.63
-3.13
-4.74
-6.35
-7.87
-9.34
-10.87
-12.67
-14.92
-17.66
-20.77
-23.90
-26.53
-28.11
-28.15
-26.37
-22.86
-17.96
-12.29
-6.55
-1.31
3.03
6.35
8.70
10.27
11.22
11.75
11.97
12.02
11.96
11.88
11.82
11.83
11.95
12.18
12.51
12.94
13.41
13.83
14.04
13.85
13.11
11.80
10.06
8.13
6.28
4.66
3.23
1.81
0.18
-1.79
-4.06
-6.40
-8.55
-10.28
-11.54
-12.46
-13.29
-14.29
-15.69
-17.56
-19.82
-22.24
-24.43
-25.87
-26.04
-24.60
-21.47
-16.97
-11.71
-6.41
-1.65
2.25
5.25
7.52
9.22
10.41
11.05
11.11
10.65
9.92
9.27
9.04
9.43
10.42
11.75
13.07
14.03
14.46
14.41
14.03
13.52
12.94
12.18
11.08
9.50
7.49
5.31
3.32
1.78
0.75
-0.03
-0.93
-2.31
-4.24
-6.52
-8.78
-10.67
-12.04
-13.02
-13.94
-15.20
-17.13
-19.78
-22.97
-26.17
-28.67
-29.78
-28.99
-26.19
-21.72
-16.22
-10.46
-5.10
-0.54
3.09
5.79
7.61
8.60
8.84
8.50
7.81
7.04
6.41
6.07
6.06
6.37
6.96
7.79
8.72
9.60
10.25
10.53
10.44
10.07
9.50
8.75
7.71
6.23
4.21
1.75
-0.89
-3.37
-5.46
-7.13
-8.53
-9.88
-11.38
-13.12
-15.11
-17.33
-19.69
-21.97
-23.81
-24.72
-24.24
-22.11
-18.38
-13.47
-8.04
-2.77
1.81
5.46
8.21
10.18
11.50
12.14
11.99
11.01
9.37
7.51
6.00
5.37
5.77
7.00
8.55
9.89
10.73
11.05
11.04
10.88
10.66
10.29
9.60
8.50
6.95
5.01
2.78
0.36
-2.15
-4.66
-7.05
-9.23
-11.19
-13.00
-14.85
-16.96
-19.46
-22.23
-24.85
-26.67
-27.03
-25.48
-22.05
-17.15
-11.49
-5.81
-0.68
3.57
6.86
9.24
10.78
11.56
11.68
11.35
10.84
10.43
10.32
10.56
11.06
11.63
12.12
12.45
12.71
13.03
13.55
14.26
14.99
15.46
15.36
14.50
12.90
10.74
8.34
6.01
3.97
2.28
0.84
-0.57
-2.14
-4.02
-6.19
-8.51
-10.76
-12.77
-14.47
-16.00
-17.63
-19.67
-22.31
-25.45
-28.70
-31.36
-32.72
-32.24
-29.68
-25.19
-19.28
-12.68
-6.17
-0.44
4.09
7.33
9.42
10.66
11.36
11.69
11.73
11.53
11.19
10.89
10.88
11.30
12.15
13.24
14.33
15.22
15.79
16.05
16.04
15.81
15.37
14.70
13.78
12.57
11.01
9.07
6.78
4.23
1.61
-0.91
-3.18
-5.19
-6.97
-8.63
-10.27
-11.96
-13.78
-15.83
-18.18
-20.79
-23.37
-25.38
-26.09
-24.90
-21.59
-16.49
-10.40
-4.30
1.02
5.21
8.37
10.78
12.66
14.01
14.66
14.48
13.59
12.39
11.37
10.92
11.14
11.85
12.75
13.61
14.32
14.87
15.28
15.54
15.56
15.28
14.65
13.66
12.28
10.53
8.42
6.02
3.46
0.90
-1.52
-3.75
-5.75
-7.57
-9.24
-10.82
-12.39
-14.08
-16.06
-18.42
-21.06
-23.64
-25.59
-26.24
-25.09
-21.98
-17.19
-11.38
-5.38
0.07
4.52
7.86
10.21
11.72
12.49
12.56
11.97
10.93
9.74
8.80
8.38
8.55
9.14
9.88
10.55
11.09
11.56
12.05
12.53
12.86
12.75
11.95
10.38
8.15
5.56
2.95
0.60
-1.40
-3.11
-4.68
-6.29
-8.08
-10.16
-12.58
-15.31
-18.16
-20.74
-22.50
-22.80
-21.27
-17.88
-13.07
-7.59
-2.23
2.41
6.06
8.78
10.74
12.15
13.06
13.42
13.23
12.57
11.71
10.95
10.58
10.74
11.42
12.45
13.60
14.61
15.26
15.46
15.17
14.45
13.42
12.20
10.88
9.43
7.78
5.83
3.57
1.08
-1.43
-3.75
-5.71
-7.27
-8.49
-9.53
-10.61
-11.97
-13.82
-16.28
-19.34
-22.77
-26.08
-28.62
-29.68
-28.76
-25.73
-20.93
-15.05
-8.91
-3.20
1.65
5.54
8.49
10.61
11.95
12.59
12.64
12.34
11.93
11.67
11.71
12.09
12.74
13.56
14.42
15.23
15.84
16.15
16.02
15.36
14.22
12.72
11.08
9.50
8.03
6.62
5.13
3.43
1.48
-0.63
-2.80
-4.86
-6.71
-8.29
-9.56
-10.58
-11.50
-12.59
-14.17
-16.48
-19.50
-22.88
-25.98
-28.02
-28.35
-26.64
-22.95
-17.77
-11.81
-5.87
-0.60
3.69
6.95
9.36
11.13
12.36
13.07
13.26
13.03
12.62
12.35
12.48
13.08
14.01
15.04
15.95
16.63
17.06
17.30
17.33
17.05
16.34
15.13
13.48
11.56
9.61
7.78
6.13
4.61
3.07
1.40
-0.47
-2.48
-4.51
-6.42
-8.10
-9.53
-10.81
-12.12
-13.68
-15.69
-18.23
-21.24
-24.39
-27.15
-28.88
-28.98
-27.11
-23.32
-18.05
-12.04
-6.06
-0.73
3.62
6.89
9.16
10.56
11.22
11.26
10.82
10.09
9.29
8.67
8.43
8.70
9.46
10.57
11.74
12.68
13.17
13.16
12.76
12.16
11.53
10.88
10.06
8.86
7.11
4.79
2.07
-0.73
-3.30
-5.48
-7.22
-8.67
-10.06
-11.60
-13.48
-15.74
-18.28
-20.82
-22.87
-23.84
-23.24
-20.86
-16.87
-11.86
-6.55
-1.59
2.60
5.95
8.52
10.39
11.56
11.94
11.55
10.55
9.29
8.21
7.68
7.84
8.63
9.80
11.09
12.20
12.97
13.30
13.16
12.59
11.66
10.51
9.26
7.96
6.56
4.93
2.99
0.75
-1.60
-3.78
-5.53
-6.79
-7.71
-8.60
-9.83
-11.63
-14.06
-16.95
-19.94
-22.53
-24.22
-24.57
-23.29
-20.34
-15.96
-10.61
-4.87
0.63
5.41
9.10
11.58
12.90
13.27
12.99
12.36
11.66
11.07
10.71
10.65
10.92
11.50
12.33
13.27
14.14
14.78
15.12
15.18
14.98
14.56
13.86
12.74
11.13
9.03
6.62
4.14
1.85
-0.13
-1.83
-3.40
-4.98
-6.62
-8.26
-9.83
-11.27
-12.66
-14.14
-15.91
-18.10
-20.74
-23.65
-26.44
-28.61
-29.58
-28.91
-26.39
-22.18
-16.76
-10.80
-4.97
0.20
4.43
7.67
9.96
11.43
12.21
12.44
12.26
11.83
11.33
10.96
10.89
11.21
11.93
12.94
14.02
14.94
15.50
15.56
15.09
14.12
12.75
11.11
9.33
7.53
5.80
4.14
2.48
0.72
-1.22
-3.30
-5.42
-7.41
-9.14
-10.56
-11.76
-12.96
-14.47
-16.53
-19.21
-22.28
-25.24
-27.38
-28.08
-26.94
-23.99
-19.55
-14.21
-8.57
-3.14
1.72
5.78
8.92
11.10
12.38
12.89
12.86
12.59
12.30
12.13
12.14
12.31
12.58
12.95
13.43
14.01
14.63
15.16
15.42
15.26
14.66
13.68
12.43
11.03
9.51
7.84
5.98
3.95
1.84
-0.19
-2.02
-3.58
-4.93
-6.24
-7.67
-9.34
-11.25
-13.38
-15.72
-18.31
-21.13
-23.98
-26.43
-27.85
-27.64
-25.46
-21.45
-16.20
-10.50
-5.11
-0.51
3.12
5.86
7.82
9.09
9.71
9.73
9.31
8.72
8.24
8.14
8.53
9.35
10.43
11.51
12.38
12.91
13.06
12.89
12.46
11.82
10.94
9.74
8.12
6.05
3.61
1.01
-1.49
-3.71
-5.58
-7.21
-8.77
-10.48
-12.48
-14.80
-17.38
-20.01
-22.34
-23.96
-24.45
-23.46
-20.92
-17.00
-12.17
-7.00
-2.06
2.27
5.83
8.60
10.64
11.98
12.63
12.64
12.14
11.40
10.71
10.37
10.50
11.06
11.82
12.51
12.90
12.90
12.56
12.03
11.43
10.77
9.94
8.73
7.01
4.77
2.19
-0.45
-2.88
-4.92
-6.59
-8.02
-9.43
-11.03
-12.99
-15.43
-18.33
-21.47
-24.36
-26.32
-26.69
-25.02
-21.36
-16.19
-10.26
-4.36
0.98
5.48
9.10
11.84
13.68
14.61
14.70
14.18
13.41
12.74
12.42
12.48
12.83
13.32
13.81
14.24
14.61
14.92
15.15
15.24
15.11
14.64
13.75
12.39
10.62
8.56
6.36
4.12
1.87
-0.37
-2.59
-4.75
-6.74
-8.47
-9.95
-11.25
-12.52
-13.97
-15.82
-18.20
-21.16
-24.54
-27.93
-30.68
-32.03
-31.34
-28.36
-23.35
-17.03
-10.35
-4.13
1.10
5.19
8.25
10.43
11.84
12.56
12.66
12.35
11.91
11.65
11.82
12.48
13.53
14.75
15.90
16.76
17.21
17.16
16.60
15.60
14.24
12.68
11.06
9.43
7.76
5.93
3.85
1.49
-1.02
-3.44
-5.51
-7.08
-8.18
-9.04
-10.02
-11.44
-13.49
-16.20
-19.35
-22.55
-25.28
-26.94
-27.02
-25.23
-21.64
-16.63
-10.84
-4.92
0.59
5.34
9.16
11.96
13.67
14.32
14.04
13.15
12.08
11.27
10.99
11.30
11.99
12.73
13.23
13.32
13.01
12.45
11.84
11.35
11.04
10.77
10.27
9.25
7.50
5.05
2.16
-0.77
-3.37
-5.49
-7.18
-8.70
-10.38
-12.44
-14.95
-17.79
-20.61
-22.93
-24.23
-24.03
-22.11
-18.57
-13.86
-8.61
-3.47
1.08
4.82
7.70
9.79
11.14
11.79
11.79
11.26
10.42
9.54
8.92
8.72
8.93
9.41
9.91
10.25
10.34
10.20
9.92
9.54
9.02
8.23
7.03
5.34
3.19
0.75
-1.75
-4.08
-6.10
-7.83
-9.40
-11.06
-13.03
-15.43
-18.16
-20.89
-23.09
-24.18
-23.71
-21.47
-17.62
-12.60
-7.03
-1.58
3.25
7.15
10.07
12.10
13.41
14.12
14.30
14.00
13.32
12.44
11.60
11.04
10.89
11.14
11.65
12.22
12.68
12.94
12.97
12.78
12.31
11.47
10.18
8.38
6.13
3.59
0.97
-1.51
-3.68
-5.47
-6.95
-8.27
-9.68
-11.44
-13.77
-16.72
-20.12
-23.55
-26.39
-27.98
-27.80
-25.69
-21.88
-16.94
-11.57
-6.37
-1.73
2.22
5.55
8.29
10.46
12.00
12.85
13.03
12.74
12.25
11.85
11.74
11.97
12.48
13.16
13.87
14.49
14.91
15.03
14.77
14.08
12.98
11.53
9.83
7.95
5.93
3.84
1.74
-0.26
-2.09
-3.77
-5.38
-7.08
-9.01
-11.30
-13.99
-17.08
-20.38
-23.55
-26.01
-27.11
-26.35
-23.55
-19.03
-13.47
-7.69
-2.36
2.18
5.89
8.86
11.14
12.70
13.44
13.36
12.64
11.62
10.73
10.29
10.43
11.06
11.96
12.86
13.54
13.85
13.76
13.28
12.47
11.44
10.27
9.00
7.54
5.78
3.62
1.09
-1.62
-4.19
-6.32
-7.87
-8.97
-9.91
-11.09
-12.78
-15.08
-17.89
-20.90
-23.70
-25.78
-26.62
-25.82
-23.16
-18.80
-13.22
-7.17
-1.44
3.33
6.82
9.03
10.19
10.60
10.54
10.22
9.76
9.31
9.05
9.14
9.66
10.48
11.32
11.87
11.93
11.58
11.06
10.64
10.42
10.22
9.64
8.33
6.15
3.31
0.27
-2.48
-4.58
-5.97
-6.86
-7.66
-8.78
-10.55
-13.10
-16.25
-19.56
-22.33
-23.88
-23.66
-21.51
-17.65
-12.66
-7.25
-2.07
2.48
6.24
9.26
11.63
13.39
14.48
14.85
14.51
13.67
12.67
11.88
11.59
11.90
12.73
13.86
15.02
15.94
16.40
16.28
15.54
14.25
12.55
10.61
8.58
6.57
4.59
2.67
0.84
-0.87
-2.46
-3.97
-5.48
-7.06
-8.75
-10.53
-12.39
-14.36
-16.52
-18.98
-21.71
-24.47
-26.78
-28.07
-27.77
-25.60
-21.64
-16.27
-10.14
-3.94
1.72
6.38
9.81
12.02
13.21
13.67
13.67
13.42
13.05
12.64
12.36
12.38
12.84
13.72
14.83
15.85
16.48
16.57
16.10
15.22
14.09
12.85
11.55
10.17
8.69
7.05
5.24
3.29
1.24
-0.82
-2.83
-4.73
-6.55
-8.32
-10.08
-11.92
-13.92
-16.20
-18.84
-21.78
-24.72
-27.07
-28.13
-27.30
-24.32
-19.48
-13.50
-7.28
-1.63
2.95
6.38
8.82
10.54
11.73
12.45
12.67
12.44
11.88
11.25
10.82
10.80
11.22
11.95
12.78
13.47
13.88
13.91
13.59
12.92
11.93
10.62
9.01
7.14
5.13
3.05
0.99
-1.00
-2.89
-4.66
-6.31
-7.85
-9.31
-10.73
-12.20
-13.82
-15.68
-17.87
-20.34
-22.95
-25.33
-26.97
-27.30
-25.91
-22.70
-17.96
-12.34
-6.61
-1.47
2.68
5.76
7.92
9.38
10.27
10.64
10.51
9.95
9.20
8.61
8.45
8.87
9.76
10.83
11.73
12.21
12.17
11.67
10.90
10.04
9.18
8.30
7.25
5.85
3.97
1.63
-0.96
-3.51
-5.72
-7.49
-8.90
-10.22
-11.74
-13.68
-16.11
-18.93
-21.80
-24.19
-25.48
-25.09
-22.72
-18.45
-12.80
-6.58
-0.57
4.61
8.68
11.61
13.52
14.54
14.77
14.30
13.28
11.98
10.75
9.93
9.78
10.31
11.34
12.51
13.44
13.87
13.76
13.26
12.59
11.90
11.17
10.23
8.87
6.95
4.53
1.83
-0.89
-3.42
-5.70
-7.78
-9.75
-11.67
-13.53
-15.31
-17.07
-18.94
-21.13
-23.71
-26.53
-29.10
-30.72
-30.68
-28.54
-24.31
-18.47
-11.83
-5.25
0.57
5.22
8.62
10.92
12.33
13.05
13.22
12.98
12.46
11.83
11.32
11.12
11.34
11.97
12.87
13.82
14.56
14.94
14.87
14.40
13.61
12.59
11.39
10.02
8.48
6.76
4.84
2.72
0.41
-1.98
-4.35
-6.52
-8.39
-9.92
-11.20
-12.45
-13.95
-15.98
-18.67
-21.88
-25.17
-27.87
-29.17
-28.46
-25.51
-20.60
-14.43
-7.87
-1.76
3.37
7.26
9.95
11.57
12.32
12.42
12.05
11.44
10.76
10.22
9.97
10.09
10.59
11.35
12.20
12.96
13.52
13.82
13.90
13.80
13.53
13.00
12.08
10.63
8.59
6.01
3.05
-0.04
-3.01
-5.62
-7.75
-9.42
-10.77
-12.06
-13.58
-15.56
-18.08
-20.99
-23.98
-26.59
-28.29
-28.65
-27.38
-24.49
-20.19
-14.91
-9.20
-3.60
1.45
5.60
8.71
10.77
11.88
12.20
11.91
11.21
10.30
9.39
8.66
8.27
8.31
8.78
9.59
10.59
11.55
12.25
12.47
12.04
10.91
9.15
6.93
4.51
2.10
-0.16
-2.20
-4.08
-5.87
-7.72
-9.81
-12.30
-15.23
-18.40
-21.36
-23.44
-23.98
-22.52
-19.01
-13.87
-7.80
-1.62
3.97
8.52
11.84
13.96
14.99
15.13
14.58
13.57
12.38
11.31
10.60
10.43
10.79
11.49
12.30
12.96
13.35
13.48
13.40
13.16
12.74
12.02
10.85
9.11
6.80
4.01
0.96
-2.09
-4.89
-7.30
-9.33
-11.15
-13.04
-15.29
-18.09
-21.34
-24.70
-27.56
-29.24
-29.13
-26.94
-22.76
-17.04
-10.50
-3.92
2.06
7.05
10.95
13.81
15.72
16.76
16.95
16.36
15.19
13.79
12.60
12.00
12.18
13.04
14.24
15.32
15.91
15.85
15.23
14.32
13.35
12.41
11.38
10.04
8.19
5.75
2.86
-0.21
-3.17
-5.80
-8.02
-9.87
-11.48
-13.09
-14.98
-17.37
-20.30
-23.46
-26.26
-27.90
-27.72
-25.40
-21.11
-15.44
-9.21
-3.14
2.22
6.60
9.94
12.27
13.66
14.21
14.07
13.50
12.77
12.13
11.80
11.85
12.24
12.86
13.54
14.09
14.39
14.36
14.02
13.39
12.50
11.32
9.80
7.88
5.56
2.93
0.20
-2.37
-4.60
-6.40
-7.91
-9.38
-11.13
-13.38
-16.16
-19.29
-22.33
-24.73
-25.90
-25.40
-23.06
-19.05
-13.81
-7.98
-2.24
2.86
6.98
10.00
11.96
12.99
13.20
12.72
11.73
10.48
9.30
8.49
8.25
8.59
9.31
10.14
10.80
11.12
11.08
10.73
10.11
9.23
8.02
6.43
4.44
2.13
-0.36
-2.83
-5.13
-7.15
-8.89
-10.46
-12.06
-13.89
-16.10
-18.67
-21.33
-23.63
-25.00
-24.94
-23.15
-19.66
-14.80
-9.14
-3.35
1.96
6.39
9.74
12.06
13.54
14.38
14.69
14.49
13.81
12.76
11.61
10.75
10.52
11.04
12.12
13.37
14.31
14.65
14.33
13.47
12.30
10.96
9.49
7.83
5.93
3.79
1.49
-0.82
-2.98
-4.88
-6.57
-8.19
-9.95
-12.03
-14.51
-17.32
-20.25
-22.97
-25.08
-26.11
-25.67
-23.51
-19.68
-14.58
-8.84
-3.19
1.77
5.75
8.73
10.88
12.33
13.18
13.41
13.08
12.33
11.48
10.86
10.72
11.13
11.99
13.04
13.95
14.49
14.53
14.12
13.43
12.62
11.79
10.88
9.69
8.01
5.75
3.03
0.15
-2.50
-4.68
-6.37
-7.75
-9.10
-10.67
-12.57
-14.87
-17.54
-20.54
-23.68
-26.57
-28.60
-29.11
-27.65
-24.18
-19.13
-13.30
-7.56
-2.52
1.55
4.72
7.24
9.35
11.13
12.52
13.38
13.62
13.31
12.67
12.06
11.77
11.98
12.61
13.45
14.18
14.58
14.59
14.26
13.69
12.92
11.91
10.59
8.93
6.94
4.74
2.49
0.28
-1.81
-3.80
-5.68
-7.49
-9.23
-10.96
-12.74
-14.74
-17.10
-19.90
-23.02
-26.03
-28.33
-29.22
-28.19
-25.10
-20.24
-14.26
-7.97
-2.12
2.74
6.39
8.84
10.27
10.93
11.06
10.84
10.38
9.75
9.05
8.44
8.14
8.36
9.19
10.53
12.09
13.51
14.44
14.69
14.29
13.36
12.07
10.52
8.73
6.69
4.46
2.19
0.06
-1.79
-3.40
-4.89
-6.44
-8.14
-9.98
-11.83
-13.59
-15.29
-17.11
-19.25
-21.75
-24.39
-26.64
-27.78
-27.19
-24.57
-20.10
-14.36
-8.15
-2.25
2.79
6.72
9.55
11.39
12.34
12.52
12.06
11.18
10.22
9.59
9.63
10.50
12.07
13.99
15.83
17.21
17.96
18.07
17.64
16.79
15.60
14.05
12.14
9.88
7.43
4.95
2.63
0.53
-1.39
-3.26
-5.25
-7.50
-10.09
-13.02
-16.22
-19.49
-22.46
-24.64
-25.48
-24.56
-21.78
-17.42
-12.11
-6.60
-1.54
2.68
5.97
8.38
10.04
11.02
11.33
11.05
10.30
9.33
8.40
7.76
7.57
7.84
8.46
9.27
10.07
10.68
10.99
10.94
10.50
9.70
8.61
7.28
5.80
4.20
2.47
0.53
-1.68
-4.12
-6.64
-9.01
-11.00
-12.54
-13.73
-14.86
-16.28
-18.24
-20.84
-23.89
-26.98
-29.52
-30.88
-30.53
-28.23
-24.08
-18.57
-12.41
-6.37
-1.05
3.23
6.42
8.68
10.19
11.13
11.58
11.64
11.39
11.02
10.75
10.77
11.20
12.00
12.99
13.94
14.64
14.94
14.84
14.38
13.68
12.79
11.71
10.35
8.62
6.48
3.98
1.34
-1.22
-3.50
-5.50
-7.37
-9.43
-11.94
-14.96
-18.23
-21.21
-23.16
-23.46
-21.79
-18.28
-13.40
-7.85
-2.28
2.78
7.02
10.22
12.31
13.31
13.32
12.60
11.48
10.27
9.23
8.46
7.99
7.83
7.95
8.33
8.85
9.38
9.74
9.84
9.66
9.24
8.58
7.58
6.10
4.04
1.49
-1.25
-3.79
-5.79
-7.23
-8.32
-9.50
-11.18
-13.61
-16.75
-20.31
-23.74
-26.36
-27.51
-26.71
-23.81
-19.12
-13.35
-7.37
-1.99
2.35
5.51
7.68
9.12
10.05
10.59
10.74
10.46
9.79
8.78
7.61
6.50
5.67
5.28
5.36
5.79
6.33
6.72
6.70
6.13
5.01
3.44
1.59
-0.40
-2.42
-4.42
-6.42
-8.46
-10.61
-12.97
-15.55
-18.30
-21.00
-23.18
-24.31
-23.80
-21.40
-17.17
-11.64
-5.55
0.32
5.37
9.30
12.04
13.70
14.44
14.42
13.79
12.67
11.22
9.61
8.06
6.82
6.15
6.17
6.85
7.95
9.10
9.93
10.15
9.64
8.45
6.71
4.59
2.21
-0.34
-3.02
-5.76
-8.52
-11.31
-14.20
-17.32
-20.69
-24.14
-27.17
-29.05
-29.01
-26.54
-21.65
-14.90
-7.24
0.27
6.80
11.92
15.54
17.81
18.97
19.25
18.85
18.00
16.97
15.99
15.28
14.94
14.95
15.16
15.35
15.35
15.05
14.53
13.94
13.46
13.11
12.72
11.97
10.49
8.07
4.79
1.01
-2.76
-6.10
-8.85
-11.17
-13.43
-16.08
-19.43
-23.50
-27.96
-32.14
-35.21
-36.35
-35.02
-31.11
-25.02
-17.52
-9.59
-2.13
4.22
9.19
12.85
15.48
17.34
18.63
19.42
19.72
19.55
19.05
18.44
17.97
17.82
18.02
18.42
18.84
19.08
19.04
18.73
18.17
17.41
16.45
15.26
13.77
11.96
9.80
7.32
4.57
1.62
-1.42
-4.46
-7.43
-10.25
-12.92
-15.50
-18.18
-21.18
-24.65
-28.55
-32.47
-35.68
-37.28
-36.51
-33.00
-26.96
-19.10
-10.45
-2.07
5.20
10.92
14.98
17.61
19.15
19.94
20.26
20.21
19.88
19.35
18.71
18.16
17.87
17.94
18.36
19.03
19.80
20.50
20.99
21.13
20.78
19.85
18.31
16.24
13.85
11.35
8.89
6.41
3.80
0.89
-2.31
-5.58
-8.61
-11.15
-13.20
-15.02
-17.00
-19.51
-22.67
-26.37
-30.21
-33.65
-36.01
-36.61
-34.93
-30.76
-24.34
-16.37
-7.84
0.23
7.08
12.34
16.00
18.28
19.50
19.90
19.69
19.06
18.19
17.29
16.54
16.06
15.89
16.01
16.35
16.81
17.30
17.73
18.00
18.01
17.61
16.70
15.24
13.28
10.91
8.34
5.72
3.17
0.71
-1.67
-4.04
-6.42
-8.80
-11.09
-13.25
-15.27
-17.27
-19.49
-22.13
-25.28
-28.68
-31.76
-33.69
-33.68
-31.23
-26.34
-19.55
-11.77
-4.00
2.92
8.52
12.69
15.59
17.45
18.49
18.79
18.37
17.30
15.71
13.92
12.33
11.30
11.00
11.35
12.06
12.76
13.20
13.35
13.30
13.16
12.91
12.40
11.40
9.73
7.39
4.55
1.49
-1.50
-4.24
-6.65
-8.74
-10.60
-12.36
-14.23
-16.45
-19.22
-22.55
-26.10
-29.18
-30.91
-30.52
-27.65
-22.51
-15.85
-8.66
-1.82
4.10
8.90
12.62
15.33
17.02
17.60
17.09
15.67
13.74
11.77
10.17
9.16
8.72
8.69
8.86
9.08
9.27
9.41
9.52
9.60
9.61
9.45
8.95
7.92
6.21
3.82
0.90
-2.25
-5.26
-7.87
-10.00
-11.83
-13.68
-15.92
-18.75
-22.17
-25.82
-29.11
-31.32
-31.74
-29.95
-25.88
-19.92
-12.71
-5.08
2.18
8.47
13.34
16.62
18.35
18.77
18.19
16.98
15.44
13.79
12.17
10.70
9.52
8.78
8.55
8.80
9.33
9.88
10.19
10.14
9.77
9.22
8.56
7.80
6.81
5.45
3.66
1.44
-1.07
-3.75
-6.49
-9.20
-11.84
-14.34
-16.62
-18.71
-20.73
-22.92
-25.52
-28.60
-31.90
-34.80
-36.47
-36.15
-33.42
-28.34
-21.47
-13.62
-5.69
1.58
7.70
12.38
15.50
17.09
17.30
16.47
14.98
13.30
11.82
10.83
10.46
10.69
11.36
12.24
13.04
13.54
13.61
13.27
12.63
11.86
11.09
10.32
9.46
8.32
6.76
4.74
2.35
-0.23
-2.80
-5.24
-7.53
-9.77
-12.03
-14.44
-17.05
-19.94
-23.11
-26.49
-29.85
-32.70
-34.40
-34.29
-31.92
-27.23
-20.68
-13.10
-5.44
1.49
7.20
11.55
14.62
16.58
17.53
17.57
16.80
15.43
13.80
12.33
11.33
10.92
11.00
11.31
11.59
11.67
11.54
11.29
11.03
10.75
10.33
9.52
8.08
5.92
3.14
0.04
-3.00
-5.66
-7.86
-9.73
-11.61
-13.86
-16.73
-20.22
-24.05
-27.68
-30.38
-31.40
-30.17
-26.48
-20.63
-13.36
-5.70
1.34
7.07
11.22
13.92
15.46
16.13
16.11
15.50
14.44
13.13
11.84
10.80
10.08
9.66
9.39
9.20
9.06
9.00
9.07
9.19
9.17
8.75
7.74
6.05
3.75
1.09
-1.68
-4.33
-6.75
-8.97
-11.18
-13.59
-16.41
-19.62
-22.99
-26.02
-28.05
-28.49
-26.93
-23.33
-18.02
-11.62
-4.86
1.60
7.26
11.82
15.15
17.20
18.02
17.74
16.64
15.06
13.42
12.10
11.31
11.11
11.35
11.74
12.04
12.09
11.94
11.72
11.51
11.21
10.58
9.33
7.29
4.57
1.48
-1.59
-4.40
-6.94
-9.35
-11.83
-14.53
-17.48
-20.70
-24.07
-27.33
-29.96
-31.30
-30.71
-27.84
-22.88
-16.43
-9.34
-2.37
3.95
9.30
13.53
16.55
18.30
18.86
18.47
17.51
16.39
15.40
14.72
14.41
14.42
14.72
15.18
15.68
16.05
16.17
16.02
15.61
15.00
14.18
13.06
11.47
9.30
6.56
3.43
0.17
-2.96
-5.80
-8.31
-10.59
-12.79
-15.06
-17.56
-20.38
-23.57
-27.00
-30.35
-33.05
-34.38
-33.67
-30.59
-25.28
-18.39
-10.82
-3.50
2.88
8.03
11.94
14.78
16.70
17.81
18.19
17.98
17.39
16.69
16.16
15.96
16.13
16.54
16.97
17.20
17.10
16.66
16.00
15.24
14.48
13.67
12.66
11.21
9.15
6.51
3.50
0.44
-2.33
-4.66
-6.61
-8.41
-10.34
-12.63
-15.39
-18.63
-22.24
-25.93
-29.20
-31.37
-31.70
-29.67
-25.23
-18.88
-11.53
-4.17
2.41
7.86
12.14
15.36
17.59
18.81
19.01
18.36
17.20
16.02
15.24
15.08
15.51
16.32
17.23
17.99
18.43
18.45
18.03
17.25
16.22
15.11
14.00
12.81
11.34
9.36
6.75
3.66
0.41
-2.64
-5.22
-7.33
-9.19
-11.09
-13.32
-16.02
-19.17
-22.55
-25.85
-28.61
-30.34
-30.57
-28.96
-25.43
-20.19
-13.77
-6.91
-0.38
5.17
9.40
12.26
13.99
14.87
15.21
15.17
14.84
14.29
13.64
13.03
12.61
12.41
12.40
12.46
12.46
12.37
12.21
12.05
11.87
11.55
10.85
9.53
7.46
4.72
1.59
-1.58
-4.49
-7.03
-9.33
-11.66
-14.28
-17.29
-20.53
-23.56
-25.76
-26.51
-25.36
-22.22
-17.42
-11.58
-5.47
0.25
5.16
9.17
12.35
14.81
16.57
17.59
17.78
17.17
15.97
14.54
13.27
12.50
12.37
12.82
13.65
14.58
15.35
15.80
15.88
15.59
14.98
14.05
12.82
11.28
9.40
7.20
4.70
1.94
-0.95
-3.79
-6.40
-8.64
-10.53
-12.22
-13.99
-16.12
-18.80
-22.03
-25.56
-28.96
-31.59
-32.81
-32.06
-29.11
-24.12
-17.70
-10.70
-3.98
1.85
6.50
10.03
12.59
14.34
15.35
15.67
15.40
14.78
14.09
13.61
13.49
13.71
14.13
14.54
14.80
14.87
14.76
14.56
14.33
14.03
13.55
12.70
11.28
9.16
6.35
3.05
-0.40
-3.61
-6.25
-8.22
-9.64
-10.87
-12.31
-14.31
-17.03
-20.37
-24.01
-27.42
-30.00
-31.17
-30.50
-27.86
-23.43
-17.69
-11.31
-4.98
0.75
5.54
9.27
11.99
13.80
14.85
15.28
15.27
14.99
14.66
14.42
14.41
14.65
15.11
15.72
16.38
16.99
17.43
17.61
17.46
16.93
16.04
14.88
13.51
11.99
10.31
8.49
6.55
4.59
2.68
0.79
-1.17
-3.34
-5.74
-8.23
-10.57
-12.58
-14.25
-15.77
-17.44
-19.46
-21.85
-24.46
-27.02
-29.27
-30.94
-31.66
-31.05
-28.71
-24.50
-18.71
-12.03
-5.36
0.49
5.07
8.38
10.72
12.40
13.62
14.39
14.63
14.39
13.86
13.38
13.25
13.59
14.26
14.97
15.45
15.55
15.32
14.91
14.49
14.09
13.61
12.86
11.64
9.84
7.46
4.67
1.73
-1.03
-3.32
-5.04
-6.29
-7.33
-8.51
-10.12
-12.30
-15.05
-18.28
-21.80
-25.33
-28.39
-30.37
-30.68
-28.91
-25.09
-19.70
-13.57
-7.55
-2.29
1.96
5.25
7.79
9.75
11.14
11.89
11.96
11.41
10.48
9.49
8.75
8.37
8.33
8.51
8.76
9.04
9.35
9.67
9.91
9.94
9.56
8.64
7.14
5.15
2.85
0.44
-1.90
-4.06
-6.07
-8.08
-10.30
-12.93
-16.03
-19.40
-22.58
-24.92
-25.83
-24.89
-22.07
-17.71
-12.41
-6.87
-1.69
2.73
6.25
8.93
10.91
12.33
13.28
13.75
13.73
13.27
12.52
11.76
11.25
11.18
11.57
12.28
13.06
13.68
13.97
13.87
13.40
12.60
11.52
10.16
8.52
6.60
4.38
1.88
-0.83
-3.59
-6.19
-8.42
-10.15
-11.48
-12.65
-14.03
-15.97
-18.65
-22.00
-25.69
-29.26
-32.15
-33.80
-33.78
-31.80
-27.85
-22.24
-15.64
-8.87
-2.76
2.16
5.74
8.19
9.86
11.05
11.89
12.30
12.25
11.79
11.20
10.82
10.92
11.49
12.30
13.00
13.33
13.29
13.04
12.79
12.64
12.48
12.08
11.15
9.58
7.39
4.76
1.87
-1.11
-4.05
-6.85
-9.41
-11.67
-13.66
-15.55
-17.65
-20.24
-23.44
-27.04
-30.47
-32.90
-33.55
-31.97
-28.17
-22.68
-16.25
-9.70
-3.65
1.57
5.83
9.13
11.50
12.96
13.58
13.52
13.03
12.42
11.98
11.89
12.18
12.70
13.22
13.52
13.50
13.21
12.77
12.34
11.95
11.53
10.91
9.91
8.42
6.43
4.02
1.34
-1.42
-4.10
-6.54
-8.69
-10.64
-12.59
-14.80
-17.50
-20.75
-24.34
-27.77
-30.32
-31.29
-30.21
-27.00
-21.99
-15.79
-9.14
-2.69
3.09
7.95
11.80
14.64
16.50
17.39
17.38
16.59
15.28
13.85
12.78
12.46
13.02
14.23
15.60
16.57
16.79
16.26
15.29
14.25
13.37
12.62
11.70
10.29
8.23
5.61
2.74
-0.06
-2.59
-4.86
-7.07
-9.39
-11.91
-14.59
-17.32
-20.05
-22.80
-25.60
-28.26
-30.34
-31.18
-30.12
-26.83
-21.49
-14.77
-7.59
-0.81
5.04
9.73
13.30
15.85
17.41
17.97
17.62
16.57
15.19
13.93
13.19
13.17
13.80
14.83
15.95
16.84
17.33
17.37
16.99
16.28
15.29
14.09
12.64
10.91
8.81
6.29
3.40
0.33
-2.67
-5.33
-7.53
-9.34
-10.99
-12.79
-14.99
-17.74
-20.99
-24.55
-28.06
-30.99
-32.72
-32.64
-30.35
-25.84
-19.54
-12.24
-4.84
1.84
7.33
11.49
14.45
16.44
17.70
18.38
18.55
18.29
17.75
17.13
16.71
16.69
17.16
18.02
19.00
19.83
20.30
20.33
19.97
19.29
18.30
16.96
15.23
13.10
10.69
8.13
5.58
3.07
0.52
-2.14
-4.93
-7.74
-10.34
-12.53
-14.26
-15.65
-17.06
-18.87
-21.39
-24.72
-28.60
-32.51
-35.68
-37.26
-36.61
-33.42
-27.87
-20.59
-12.51
-4.57
2.47
8.22
12.58
15.67
17.68
18.81
19.19
19.00
18.47
17.87
17.49
17.53
18.00
18.80
19.72
20.55
21.15
21.56
21.87
22.10
22.18
21.89
20.94
19.20
16.74
13.84
10.92
8.27
6.01
4.04
2.13
0.09
-2.16
-4.55
-6.89
-9.02
-10.84
-12.38
-13.80
-15.35
-17.30
-19.91
-23.22
-27.05
-30.92
-34.14
-35.95
-35.74
-33.24
-28.58
-22.28
-15.10
-7.81
-1.07
4.69
9.26
12.63
14.91
16.35
17.17
17.64
17.87
17.93
17.83
17.56
17.19
16.84
16.69
16.89
17.48
18.35
19.30
20.05
20.34
19.98
18.92
17.23
15.05
12.57
9.97
7.45
5.12
3.02
1.10
-0.78
-2.78
-4.99
-7.36
-9.76
-11.98
-13.84
-15.37
-16.75
-18.33
-20.47
-23.38
-26.89
-30.50
-33.36
-34.53
-33.35
-29.70
-23.99
-17.07
-9.85
-3.09
2.73
7.41
10.88
13.19
14.41
14.73
14.40
13.71
12.94
12.29
11.86
11.72
11.90
12.39
13.13
13.96
14.72
15.24
15.44
15.27
14.72
13.82
12.57
11.01
9.19
7.15
4.96
2.63
0.22
-2.23
-4.66
-6.97
-9.12
-11.10
-13.01
-15.01
-17.27
-19.94
-22.98
-26.16
-28.95
-30.68
-30.72
-28.64
-24.47
-18.61
-11.81
-4.87
1.52
6.92
11.15
14.19
16.12
17.07
17.18
16.61
15.58
14.34
13.15
12.24
11.80
11.87
12.40
13.24
14.20
15.10
15.74
16.01
15.79
15.09
13.99
12.61
11.08
9.46
7.70
5.70
3.38
0.73
-2.13
-5.02
-7.72
-10.08
-12.04
-13.63
-14.97
-16.29
-17.87
-19.98
-22.76
-26.12
-29.70
-32.89
-34.97
-35.28
-33.42
-29.39
-23.57
-16.68
-9.53
-2.87
2.81
7.31
10.69
13.08
14.64
15.48
15.64
15.24
14.47
13.57
12.80
12.36
12.38
12.83
13.64
14.62
15.59
16.33
16.66
16.48
15.75
14.52
12.91
11.02
8.94
6.76
4.52
2.28
0.09
-2.07
-4.22
-6.38
-8.54
-10.62
-12.53
-14.27
-15.91
-17.67
-19.83
-22.56
-25.81
-29.21
-32.07
-33.61
-33.14
-30.36
-25.44
-19.00
-11.90
-5.02
0.97
5.70
9.13
11.42
12.80
13.53
13.80
13.77
13.59
13.43
13.46
13.74
14.27
14.93
15.60
16.18
16.71
17.26
17.82
18.25
18.31
17.72
16.37
14.34
11.93
9.46
7.15
5.06
3.06
0.99
-1.29
-3.77
-6.38
-8.98
-11.39
-13.48
-15.18
-16.59
-17.94
-19.59
-21.84
-24.80
-28.18
-31.31
-33.32
-33.39
-31.11
-26.60
-20.49
-13.66
-7.00
-1.12
3.69
7.38
10.06
11.81
12.73
12.89
12.43
11.58
10.67
10.01
9.86
10.29
11.21
12.36
13.44
14.19
14.48
14.31
13.76
12.95
11.94
10.73
9.28
7.58
5.60
3.37
0.94
-1.58
-4.05
-6.34
-8.42
-10.32
-12.22
-14.32
-16.77
-19.63
-22.73
-25.75
-28.17
-29.40
-28.95
-26.56
-22.33
-16.74
-10.49
-4.32
1.20
5.74
9.21
11.62
13.05
13.62
13.49
12.89
12.11
11.40
10.94
10.76
10.83
11.10
11.50
11.97
12.44
12.80
12.96
12.81
12.31
11.40
10.03
8.14
5.71
2.83
-0.33
-3.45
-6.20
-8.34
-9.88
-11.06
-12.37
-14.30
-17.19
-21.00
-25.27
-29.18
-31.81
-32.42
-30.60
-26.45
-20.51
-13.56
-6.48
0.02
5.47
9.65
12.60
14.51
15.63
16.17
16.26
15.98
15.41
14.70
14.11
13.88
14.19
14.99
16.04
16.99
17.56
17.63
17.25
16.61
15.79
14.77
13.44
11.65
9.39
6.77
3.99
1.26
-1.25
-3.52
-5.60
-7.62
-9.74
-12.05
-14.57
-17.26
-20.09
-23.04
-26.17
-29.40
-32.41
-34.59
-35.16
-33.46
-29.28
-23.04
-15.67
-8.26
-1.68
3.65
7.75
10.90
13.36
15.21
16.42
16.90
16.73
16.11
15.41
14.96
14.98
15.50
16.40
17.44
18.42
19.15
19.54
19.53
19.11
18.25
16.95
15.24
13.15
10.75
8.13
5.42
2.75
0.22
-2.09
-4.20
-6.15
-8.03
-9.89
-11.81
-13.90
-16.29
-19.12
-22.38
-25.81
-28.84
-30.69
-30.63
-28.30
-23.80
-17.70
-10.89
-4.18
1.84
6.89
10.93
14.05
16.30
17.71
18.31
18.18
17.49
16.49
15.47
14.73
14.43
14.62
15.20
15.93
16.58
16.93
16.91
16.52
15.83
14.86
13.61
12.03
10.07
7.70
4.96
1.99
-1.01
-3.78
-6.15
-8.06
-9.65
-11.23
-13.09
-15.50
-18.48
-21.86
-25.27
-28.18
-30.04
-30.34
-28.76
-25.24
-20.10
-13.91
-7.42
-1.33
3.86
7.94
10.89
12.80
13.83
14.13
13.87
13.26
12.56
12.04
11.91
12.26
12.99
13.86
14.57
14.94
14.91
14.60
14.14
13.60
12.89
11.83
10.24
8.08
5.49
2.74
0.10
-2.29
-4.43
-6.48
-8.59
-10.95
-13.66
-16.73
-20.03
-23.22
-25.80
-27.16
-26.75
-24.30
-19.97
-14.29
-8.04
-1.98
3.34
7.71
11.13
13.70
15.44
16.31
16.33
15.61
14.44
13.23
12.35
12.06
12.44
13.37
14.57
15.75
16.61
16.99
16.87
16.34
15.59
14.72
13.73
12.49
10.81
8.59
5.84
2.75
-0.43
-3.46
-6.20
-8.57
-10.56
-12.21
-13.55
-14.72
-15.97
-17.64
-20.03
-23.26
-27.11
-30.97
-33.95
-35.17
-34.05
-30.48
-24.88
-18.05
-10.88
-4.16
1.63
6.29
9.83
12.38
14.11
15.15
15.61
15.59
15.22
14.66
14.14
13.91
14.10
14.68
15.47
16.18
16.60
16.61
16.23
15.56
14.71
13.68
12.39
10.76
8.74
6.34
3.70
0.97
-1.64
-3.97
-5.91
-7.47
-8.83
-10.26
-12.09
-14.52
-17.63
-21.23
-24.89
-27.97
-29.72
-29.56
-27.19
-22.77
-16.88
-10.38
-4.08
1.43
5.91
9.39
12.03
13.97
15.28
16.00
16.16
15.87
15.27
14.54
13.89
13.48
13.45
13.83
14.53
15.35
16.05
16.43
16.37
15.83
14.83
13.39
11.56
9.42
7.11
4.74
2.41
0.13
-2.15
-4.47
-6.81
-9.10
-11.24
-13.18
-14.98
-16.74
-18.63
-20.82
-23.38
-26.28
-29.26
-31.84
-33.36
-33.15
-30.78
-26.22
-19.96
-12.85
-5.86
0.20
4.81
7.87
9.55
10.20
10.20
9.87
9.42
8.99
8.64
8.44
8.46
8.76
9.32
10.03
10.72
11.21
11.45
11.51
11.46
11.31
10.87
9.89
8.12
5.56
2.44
-0.79
-3.72
-6.13
-8.10
-9.95
-12.13
-14.92
-18.34
-22.05
-25.43
-27.66
-28.05
-26.20
-22.12
-16.30
-9.54
-2.72
3.40
8.37
12.04
14.52
16.06
16.84
17.00
16.59
15.69
14.49
13.31
12.49
12.30
12.80
13.82
15.05
16.10
16.74
16.88
16.55
15.86
14.85
13.54
11.91
9.90
7.50
4.74
1.73
-1.37
-4.32
-6.93
-9.08
-10.79
-12.22
-13.65
-15.34
-17.51
-20.29
-23.65
-27.37
-31.01
-33.87
-35.18
-34.33
-31.06
-25.68
-18.92
-11.73
-4.96
0.88
5.62
9.36
12.25
14.36
15.66
16.10
15.76
14.86
13.74
12.82
12.38
12.57
13.29
14.30
15.29
15.96
16.18
15.94
15.36
14.60
13.77
12.85
11.70
10.11
7.92
5.09
1.76
-1.78
-5.21
-8.25
-10.76
-12.76
-14.45
-16.13
-18.12
-20.66
-23.76
-27.13
-30.16
-32.08
-32.19
-30.07
-25.78
-19.81
-12.92
-5.93
0.48
5.91
10.23
13.49
15.80
17.25
17.87
17.68
16.82
15.57
14.31
13.45
13.24
13.70
14.59
15.57
16.31
16.65
16.57
16.14
15.43
14.42
13.12
11.49
9.58
7.40
4.99
2.40
-0.30
-2.98
-5.50
-7.78
-9.85
-11.87
-14.08
-16.71
-19.84
-23.36
-26.93
-29.99
-31.93
-32.20
-30.49
-26.82
-21.56
-15.35
-8.86
-2.72
2.68
7.12
10.52
12.87
14.16
14.48
13.99
12.99
11.84
10.86
10.28
10.15
10.41
10.92
11.52
12.11
12.63
13.05
13.27
13.13
12.45
11.07
8.98
6.31
3.31
0.29
-2.45
-4.76
-6.65
-8.30
-10.01
-12.07
-14.67
-17.74
-20.98
-23.81
-25.58
-25.67
-23.74
-19.82
-14.34
-8.04
-1.71
3.91
8.36
11.50
13.50
14.65
15.22
15.37
15.12
14.49
13.59
12.70
12.11
12.06
12.59
13.54
14.61
15.50
15.98
15.97
15.49
14.61
13.45
12.09
10.55
8.77
6.70
4.28
1.56
-1.32
-4.13
-6.66
-8.81
-10.64
-12.34
-14.16
-16.30
-18.88
-21.90
-25.17
-28.38
-31.03
-32.54
-32.34
-30.09
-25.77
-19.78
-12.85
-5.84
0.51
5.71
9.65
12.44
14.31
15.40
15.80
15.57
14.86
13.95
13.15
12.76
12.94
13.62
14.58
15.52
16.15
16.31
15.94
15.17
14.17
13.11
12.06
10.91
9.45
7.44
4.78
1.61
-1.76
-4.95
-7.70
-9.96
-11.88
-13.67
-15.56
-17.65
-20.04
-22.74
-25.68
-28.61
-31.02
-32.25
-31.62
-28.77
-23.79
-17.31
-10.23
-3.52
2.18
6.61
9.87
12.23
13.95
15.15
15.88
16.16
16.05
15.68
15.24
14.90
14.81
15.01
15.46
16.02
16.54
16.85
16.81
16.38
15.59
14.48
13.10
11.41
9.38
6.94
4.10
0.98
-2.24
-5.36
-8.21
-10.76
-13.01
-15.06
-17.01
-19.00
-21.22
-23.85
-26.99
-30.46
-33.76
-36.04
-36.38
-34.09
-29.02
-21.67
-12.97
-4.07
4.05
10.76
15.77
19.12
20.97
21.59
21.24
20.20
18.78
17.33
16.16
15.48
15.32
15.52
15.78
15.86
15.66
15.22
14.71
14.22
13.70
12.97
11.77
9.94
7.43
4.36
0.98
-2.44
-5.60
-8.30
-10.52
-12.42
-14.36
-16.70
-19.66
-23.12
-26.62
-29.46
-30.90
-30.40
-27.76
-23.13
-17.08
-10.33
-3.70
2.14
6.74
9.96
11.92
12.86
13.10
12.84
12.25
11.43
10.55
9.80
9.42
9.58
10.25
11.23
12.21
12.94
13.30
13.37
13.23
12.86
12.04
10.50
8.08
4.89
1.33
-2.07
-4.93
-7.13
-8.87
-10.53
-12.49
-14.98
-18.08
-21.66
-25.35
-28.57
-30.57
-30.64
-28.35
-23.77
-17.46
-10.31
-3.29
2.91
7.91
11.69
14.38
16.15
17.10
17.27
16.75
15.71
14.47
13.41
12.84
12.93
13.65
14.79
16.05
17.14
17.82
17.96
17.50
16.48
15.03
13.27
11.30
9.13
6.73
4.04
1.09
-1.95
-4.84
-7.39
-9.53
-11.44
-13.37
-15.60
-18.30
-21.45
-24.88
-28.29
-31.22
-33.16
-33.56
-31.97
-28.24
-22.63
-15.75
-8.43
-1.54
4.34
8.89
12.14
14.27
15.48
15.96
15.84
15.26
14.44
13.64
13.16
13.24
13.94
15.11
16.40
17.38
17.71
17.28
16.27
14.97
13.65
12.34
10.88
9.01
6.58
3.67
0.60
-2.28
-4.74
-6.78
-8.64
-10.61
-12.93
-15.67
-18.79
-22.15
-25.57
-28.79
-31.44
-32.99
-32.86
-30.64
-26.23
-20.04
-12.84
-5.58
0.93
6.23
10.29
13.32
15.55
17.06
17.83
17.81
17.15
16.16
15.27
14.84
14.98
15.54
16.26
16.87
17.21
17.28
17.11
16.76
16.22
15.43
14.29
12.80
10.93
8.75
6.29
3.60
0.71
-2.27
-5.20
-7.91
-10.25
-12.23
-13.99
-15.81
-17.99
-20.74
-24.05
-27.65
-31.03
-33.52
-34.41
-33.17
-29.62
-24.03
-17.11
-9.78
-2.90
2.96
7.60
11.10
13.63
15.35
16.33
16.63
16.35
15.74
15.08
14.67
14.79
15.52
16.80
18.40
19.97
21.13
21.59
21.25
20.20
18.66
16.81
14.78
12.57
10.15
7.50
4.68
1.83
-0.93
-3.53
-5.97
-8.27
-10.43
-12.47
-14.38
-16.29
-18.42
-21.03
-24.21
-27.74
-31.01
-33.16
-33.35
-31.11
-26.47
-20.07
-12.82
-5.70
0.57
5.62
9.39
11.99
13.55
14.19
14.00
13.14
11.88
10.60
9.71
9.55
10.25
11.67
13.43
15.07
16.21
16.69
16.60
16.16
15.59
14.95
14.14
12.96
11.24
9.00
6.37
3.57
0.79
-1.91
-4.48
-6.91
-9.18
-11.27
-13.21
-15.17
-17.45
-20.31
-23.78
-27.52
-30.79
-32.64
-32.27
-29.34
-24.15
-17.47
-10.30
-3.48
2.49
7.48
11.51
14.60
16.68
17.62
17.41
16.30
14.75
13.32
12.48
12.44
13.17
14.36
15.65
16.69
17.27
17.29
16.81
15.98
14.94
13.80
12.56
11.10
9.24
6.86
3.93
0.62
-2.80
-6.02
-8.83
-11.18
-13.21
-15.19
-17.41
-20.07
-23.26
-26.88
-30.58
-33.83
-35.92
-36.19
-34.19
-29.80
-23.39
-15.72
-7.75
-0.40
5.72
10.36
13.63
15.80
17.16
17.86
17.95
17.49
16.59
15.53
14.65
14.26
14.53
15.39
16.58
17.76
18.65
19.11
19.09
18.63
17.73
16.39
14.61
12.49
10.15
7.76
5.41
3.06
0.65
-1.89
-4.54
-7.17
-9.62
-11.81
-13.79
-15.76
-18.03
-20.87
-24.40
-28.49
-32.64
-36.11
-38.01
-37.59
-34.51
-28.97
-21.67
-13.62
-5.81
1.06
6.64
10.91
14.00
16.09
17.33
17.80
17.62
16.95
16.07
15.25
14.77
14.81
15.36
16.34
17.56
18.82
19.94
20.76
21.11
20.89
20.02
18.56
16.64
14.45
12.11
9.71
7.21
4.53
1.67
-1.28
-4.15
-6.75
-9.01
-10.93
-12.64
-14.31
-16.14
-18.38
-21.20
-24.71
-28.75
-32.84
-36.17
-37.79
-36.94
-33.31
-27.21
-19.51
-11.26
-3.45
3.28
8.66
12.66
15.38
16.92
17.41
17.06
16.16
15.11
14.25
13.82
13.90
14.36
15.00
15.58
15.98
16.18
16.26
16.27
16.20
15.90
15.14
13.74
11.58
8.76
5.48
2.06
-1.23
-4.19
-6.75
-8.94
-10.90
-12.85
-15.03
-17.68
-20.91
-24.60
-28.38
-31.58
-33.42
-33.24
-30.70
-25.94
-19.55
-12.37
-5.23
1.27
6.82
11.29
14.63
16.78
17.69
17.41
16.22
14.56
12.98
11.92
11.63
12.06
12.93
13.90
14.65
15.05
15.12
14.96
14.71
14.40
13.93
13.08
11.61
9.38
6.45
3.03
-0.53
-3.91
-6.92
-9.49
-11.73
-13.83
-16.07
-18.66
-21.74
-25.18
-28.58
-31.23
-32.31
-31.17
-27.59
-21.89
-14.82
-7.35
-0.33
5.70
10.49
14.02
16.39
17.73
18.19
17.95
17.20
16.16
15.04
14.03
13.34
13.15
13.52
14.40
15.57
16.73
17.59
17.96
17.80
17.16
16.09
14.63
12.74
10.40
7.64
4.58
1.47
-1.48
-4.14
-6.48
-8.65
-10.79
-13.02
-15.35
-17.72
-20.06
-22.41
-24.93
-27.83
-31.18
-34.74
-37.85
-39.61
-39.15
-36.01
-30.38
-23.02
-15.03
-7.46
-0.94
4.31
8.46
11.76
14.39
16.33
17.50
17.81
17.37
16.46
15.48
14.83
14.78
15.35
16.38
17.56
18.61
19.33
19.67
19.60
19.13
18.22
16.84
15.03
12.87
10.49
7.94
5.24
2.37
-0.64
-3.69
-6.63
-9.29
-11.64
-13.72
-15.70
-17.80
-20.25
-23.14
-26.40
-29.76
-32.72
-34.62
-34.85
-32.94
-28.86
-22.97
-16.00
-8.79
-2.05
3.80
8.67
12.66
15.89
18.36
19.97
20.57
20.25
19.26
18.07
17.16
16.81
17.07
17.74
18.57
19.29
19.72
19.73
19.25
18.26
16.79
14.93
12.81
10.51
8.09
5.50
2.74
-0.19
-3.17
-6.04
-8.62
-10.87
-12.83
-14.70
-16.69
-19.02
-21.82
-25.06
-28.51
-31.71
-34.01
-34.78
-33.53
-30.11
-24.77
-18.11
-10.86
-3.75
2.67
8.06
12.26
15.20
16.84
17.25
16.66
15.46
14.17
13.27
13.03
13.44
14.21
14.97
15.42
15.48
15.26
14.96
14.67
14.36
13.79
12.74
11.04
8.71
5.91
2.91
-0.03
-2.76
-5.24
-7.52
-9.76
-12.16
-14.93
-18.18
-21.87
-25.69
-29.01
-31.02
-30.96
-28.37
-23.40
-16.74
-9.39
-2.37
3.71
8.66
12.61
15.76
18.20
19.80
20.42
20.07
18.96
17.54
16.28
15.51
15.33
15.63
16.22
16.91
17.57
18.13
18.53
18.65
18.34
17.45
15.89
13.73
11.12
8.30
5.48
2.78
0.22
-2.26
-4.73
-7.24
-9.74
-12.18
-14.46
-16.58
-18.55
-20.51
-22.66
-25.27
-28.49
-32.28
-36.18
-39.38
-40.87
-39.77
-35.72
-29.03
-20.64
-11.79
-3.60
3.26
8.62
12.65
15.65
17.88
19.43
20.33
20.62
20.39
19.83
19.19
18.70
18.55
18.77
19.27
19.85
20.28
20.38
20.09
19.47
18.62
17.62
16.41
14.89
12.92
10.41
7.42
4.09
0.66
-2.66
-5.68
-8.31
-10.56
-12.51
-14.36
-16.34
-18.69
-21.57
-24.99
-28.73
-32.34
-35.14
-36.40
-35.50
-32.15
-26.55
-19.31
-11.37
-3.65
3.10
8.52
12.60
15.52
17.51
18.72
19.22
19.11
18.58
17.90
17.39
17.24
17.49
18.01
18.64
19.22
19.72
20.16
20.54
20.74
20.56
19.72
18.09
15.72
12.88
9.97
7.33
5.14
3.35
1.74
0.01
-2.04
-4.45
-7.06
-9.61
-11.90
-13.84
-15.57
-17.34
-19.45
-22.12
-25.32
-28.78
-31.96
-34.16
-34.66
-32.94
-28.89
-22.82
-15.45
-7.72
-0.53
5.46
9.94
12.92
14.65
15.45
15.60
15.28
14.62
13.74
12.82
12.08
11.76
12.02
12.84
13.99
15.14
15.93
16.11
15.61
14.52
13.02
11.32
9.53
7.65
5.57
3.15
0.33
-2.77
-5.87
-8.66
-10.92
-12.67
-14.17
-15.76
-17.73
-20.16
-22.92
-25.78
-28.43
-30.52
-31.66
-31.44
-29.53
-25.81
-20.49
-14.14
-7.51
-1.31
3.98
8.14
11.18
13.18
14.21
14.32
13.66
12.53
11.35
10.56
10.48
11.12
12.24
13.42
14.29
14.66
14.55
14.13
13.51
12.75
11.76
10.42
8.66
6.50
4.05
1.45
-1.19
-3.78
-6.23
-8.48
-10.53
-12.52
-14.66
-17.17
-20.16
-23.48
-26.66
-29.03
-29.92
-28.82
-25.63
-20.65
-14.51
-8.01
-1.90
3.33
7.47
10.56
12.76
14.19
14.90
14.86
14.15
12.96
11.68
10.70
10.33
10.66
11.53
12.63
13.66
14.39
14.79
14.87
14.66
14.12
13.16
11.74
9.90
7.81
5.65
3.52
1.39
-0.88
-3.37
-6.02
-8.65
-11.04
-13.04
-14.76
-16.43
-18.35
-20.74
-23.68
-27.08
-30.64
-33.89
-36.15
-36.64
-34.73
-30.23
-23.57
-15.72
-7.91
-1.19
3.91
7.39
9.64
11.07
11.97
12.40
12.38
12.03
11.59
11.36
11.53
12.08
12.83
13.51
13.96
14.12
14.07
13.89
13.64
13.28
12.72
11.84
10.56
8.80
6.57
3.93
1.00
-2.07
-5.06
-7.78
-10.15
-12.16
-13.97
-15.86
-18.10
-20.90
-24.25
-27.85
-31.14
-33.41
-33.97
-32.36
-28.52
-22.88
-16.14
-9.20
-2.81
2.56
6.78
9.96
12.31
14.00
15.07
15.51
15.33
14.68
13.80
13.05
12.72
12.96
13.68
14.66
15.60
16.28
16.61
16.62
16.33
15.77
14.88
13.64
12.05
10.14
7.95
5.53
2.86
0.00
-2.91
-5.71
-8.21
-10.34
-12.18
-13.91
-15.77
-17.95
-20.59
-23.70
-27.16
-30.59
-33.41
-34.87
-34.31
-31.39
-26.24
-19.43
-11.85
-4.40
2.18
7.43
11.15
13.35
14.20
14.01
13.15
12.06
11.08
10.49
10.38
10.74
11.42
12.22
12.95
13.46
13.73
13.79
13.76
13.71
13.56
13.12
12.12
10.38
7.92
4.96
1.83
-1.15
-3.85
-6.31
-8.71
-11.21
-13.92
-16.87
-20.03
-23.29
-26.41
-28.94
-30.30
-29.91
-27.44
-22.97
-17.01
-10.38
-3.93
1.72
6.30
9.79
12.32
14.00
14.84
14.84
14.10
12.92
11.73
10.96
10.85
11.37
12.23
13.07
13.60
13.77
13.74
13.67
13.62
13.45
12.90
11.69
9.71
7.03
3.91
0.68
-2.37
-5.09
-7.51
-9.79
-12.19
-14.90
-17.99
-21.36
-24.66
-27.39
-28.94
-28.80
-26.66
-22.56
-16.89
-10.31
-3.58
2.64
7.90
11.99
14.95
16.91
18.03
18.42
18.18
17.43
16.35
15.18
14.23
13.76
13.92
14.71
15.95
17.32
18.49
19.14
19.11
18.38
17.07
15.36
13.38
11.14
8.61
5.77
2.69
-0.43
-3.34
-5.84
-7.91
-9.70
-11.49
-13.56
-16.08
-19.10
-22.52
-26.11
-29.52
-32.27
-33.82
-33.64
-31.44
-27.25
-21.42
-14.61
-7.56
-0.94
4.77
9.35
12.78
15.18
16.68
17.39
17.37
16.76
15.77
14.76
14.07
13.96
14.48
15.45
16.59
17.56
18.14
18.26
17.98
17.36
16.43
15.17
13.50
11.38
8.81
5.87
2.74
-0.40
-3.36
-6.01
-8.30
-10.26
-12.03
-13.78
-15.77
-18.25
-21.38
-25.06
-28.82
-31.89
-33.37
-32.56
-29.23
-23.75
-16.95
-9.81
-3.13
2.64
7.38
11.16
14.03
15.96
16.88
16.82
15.99
14.83
13.81
13.29
13.43
14.12
15.10
16.08
16.85
17.34
17.52
17.44
17.14
16.62
15.87
14.84
13.46
11.69
9.48
6.86
3.93
0.87
-2.13
-4.90
-7.32
-9.39
-11.22
-13.00
-14.99
-17.44
-20.46
-23.92
-27.42
-30.28
-31.75
-31.22
-28.41
-23.52
-17.16
-10.15
-3.31
2.78
7.82
11.76
14.68
16.63
17.67
17.87
17.40
16.54
15.64
15.01
14.85
15.17
15.84
16.70
17.60
18.44
19.14
19.61
19.74
19.38
18.44
16.89
14.82
12.43
9.98
7.70
5.70
3.92
2.17
0.22
-2.03
-4.53
-7.12
-9.60
-11.86
-13.91
-15.85
-17.85
-20.08
-22.66
-25.60
-28.73
-31.61
-33.62
-34.09
-32.52
-28.82
-23.37
-16.85
-10.06
-3.68
1.84
6.30
9.63
11.86
13.03
13.22
12.61
11.46
10.13
8.97
8.29
8.22
8.75
9.71
10.85
11.94
12.81
13.33
13.44
13.07
12.19
10.77
8.84
6.51
3.93
1.33
-1.12
-3.31
-5.26
-7.12
-9.10
-11.40
-14.17
-17.38
-20.85
-24.20
-26.84
-28.09
-27.36
-24.42
-19.47
-13.18
-6.51
-0.36
4.70
8.51
11.28
13.29
14.72
15.58
15.79
15.33
14.35
13.19
12.23
11.77
11.92
12.62
13.68
14.86
15.96
16.81
17.29
17.28
16.68
15.43
13.61
11.41
9.05
6.78
4.65
2.58
0.39
-2.02
-4.66
-7.35
-9.85
-12.03
-13.90
-15.60
-17.36
-19.38
-21.78
-24.63
-27.89
-31.29
-34.29
-36.08
-35.85
-33.05
-27.74
-20.56
-12.57
-4.85
1.80
7.03
10.88
13.55
15.21
15.98
15.97
15.37
14.50
13.74
13.40
13.63
14.38
15.46
16.61
17.62
18.39
18.83
18.89
18.51
17.61
16.15
14.19
11.90
9.50
7.18
5.03
3.05
1.14
-0.83
-2.90
-5.06
-7.24
-9.34
-11.35
-13.32
-15.39
-17.81
-20.76
-24.30
-28.17
-31.80
-34.37
-35.09
-33.42
-29.32
-23.27
-16.13
-8.85
-2.20
3.40
7.80
11.09
13.38
14.74
15.26
15.11
14.57
13.99
13.70
13.93
14.68
15.80
17.00
18.08
18.91
19.45
19.69
19.55
18.94
17.77
16.10
14.09
11.98
9.95
8.03
6.12
4.05
1.72
-0.85
-3.51
-6.05
-8.31
-10.25
-11.94
-13.57
-15.38
-17.60
-20.44
-23.92
-27.81
-31.57
-34.43
-35.55
-34.35
-30.66
-24.85
-17.68
-10.09
-2.91
3.29
8.26
11.97
14.46
15.86
16.34
16.14
15.63
15.23
15.25
15.82
16.83
18.02
19.06
19.75
20.11
20.33
20.66
21.21
21.86
22.28
22.07
20.97
18.96
16.31
13.44
10.74
8.45
6.60
5.05
3.59
2.02
0.19
-1.91
-4.22
-6.59
-8.86
-10.93
-12.81
-14.70
-16.87
-19.63
-23.13
-27.29
-31.64
-35.44
-37.80
-37.97
-35.58
-30.79
-24.26
-16.92
-9.69
-3.22
2.19
6.50
9.79
12.15
13.63
14.29
14.27
13.82
13.22
12.75
12.63
12.93
13.65
14.70
15.92
17.15
18.24
19.08
19.56
19.63
19.21
18.24
16.69
14.61
12.17
9.59
7.07
4.72
2.49
0.26
-2.05
-4.43
-6.76
-8.87
-10.66
-12.19
-13.62
-15.22
-17.24
-19.84
-22.99
-26.39
-29.49
-31.53
-31.75
-29.68
-25.32
-19.20
-12.17
-5.17
1.08
6.19
10.06
12.75
14.36
15.00
14.78
13.92
12.72
11.52
10.66
10.39
10.79
11.78
13.12
14.47
15.50
16.01
15.96
15.49
14.79
13.99
13.11
12.05
10.65
8.78
6.46
3.81
1.03
-1.70
-4.27
-6.65
-8.87
-10.99
-13.06
-15.19
-17.50
-20.09
-22.98
-25.96
-28.63
-30.35
-30.50
-28.62
-24.63
-18.88
-12.07
-5.11
1.20
6.27
9.86
12.04
13.05
13.21
12.82
12.17
11.52
11.17
11.31
12.06
13.33
14.86
16.31
17.39
17.94
17.98
17.69
17.25
16.80
16.32
15.65
14.60
13.03
10.95
8.57
6.16
4.01
2.19
0.58
-1.08
-3.02
-5.34
-7.90
-10.42
-12.63
-14.42
-15.89
-17.31
-19.05
-21.36
-24.34
-27.84
-31.49
-34.70
-36.78
-37.05
-35.06
-30.76
-24.57
-17.28
-9.84
-3.06
2.54
6.80
9.88
12.01
13.40
14.18
14.38
14.06
13.39
12.63
12.12
12.12
12.73
13.79
15.02
16.06
16.68
16.84
16.59
16.08
15.35
14.40
13.21
11.77
10.14
8.40
6.56
4.58
2.35
-0.15
-2.86
-5.60
-8.18
-10.42
-12.29
-13.91
-15.48
-17.28
-19.59
-22.52
-25.90
-29.23
-31.76
-32.65
-31.30
-27.60
-21.95
-15.18
-8.21
-1.86
3.40
7.44
10.36
12.35
13.59
14.20
14.26
13.88
13.25
12.64
12.36
12.63
13.49
14.77
16.15
17.27
17.93
18.11
17.96
17.64
17.19
16.54
15.59
14.27
12.65
10.87
9.06
7.21
5.23
2.97
0.36
-2.50
-5.35
-7.93
-10.04
-11.71
-13.15
-14.65
-16.48
-18.85
-21.78
-25.13
-28.54
-31.47
-33.26
-33.29
-31.17
-26.96
-21.14
-14.55
-8.06
-2.36
2.26
5.84
8.53
10.51
11.80
12.38
12.27
11.68
10.93
10.38
10.28
10.66
11.40
12.29
13.12
13.77
14.18
14.35
14.24
13.79
12.88
11.42
9.36
6.79
3.88
0.89
-1.90
-4.31
-6.26
-7.85
-9.28
-10.87
-12.95
-15.73
-19.18
-22.93
-26.32
-28.54
-28.92
-27.16
-23.44
-18.34
-12.64
-6.98
-1.82
2.65
6.38
9.38
11.64
13.08
13.67
13.47
12.67
11.63
10.74
10.31
10.49
11.17
12.11
13.02
13.72
14.12
14.26
14.21
13.96
13.42
12.44
10.93
8.90
6.45
3.76
1.01
-1.64
-4.14
-6.45
-8.62
-10.76
-13.03
-15.58
-18.57
-21.94
-25.41
-28.40
-30.19
-30.10
-27.78
-23.35
-17.37
-10.69
-4.17
1.50
5.96
9.16
11.28
12.58
13.32
13.68
13.73
13.55
13.24
13.00
13.01
13.39
14.15
15.17
16.29
17.37
18.31
18.99
19.27
18.97
18.04
16.52
14.61
12.54
10.45
8.32
6.03
3.52
0.82
-1.89
-4.44
-6.74
-8.84
-10.88
-12.97
-15.17
-17.52
-20.12
-23.10
-26.50
-30.14
-33.45
-35.62
-35.81
-33.54
-28.85
-22.36
-15.01
-7.78
-1.38
3.87
7.96
11.06
13.31
14.80
15.60
15.79
15.56
15.14
14.79
14.67
14.87
15.37
16.11
16.99
17.89
18.68
19.22
19.35
18.98
18.08
16.68
14.88
12.73
10.34
7.78
5.12
2.45
-0.16
-2.62
-4.88
-6.89
-8.67
-10.33
-12.02
-13.94
-16.26
-19.10
-22.41
-25.93
-29.13
-31.33
-31.82
-30.15
-26.24
-20.53
-13.82
-7.04
-0.95
4.02
7.84
10.68
12.76
14.25
15.25
15.82
16.09
16.23
16.42
16.75
17.19
17.63
17.96
18.11
18.13
18.11
18.18
18.34
18.45
18.29
17.63
16.35
14.48
12.20
9.74
7.23
4.75
2.25
-0.26
-2.74
-5.08
-7.19
-9.06
-10.80
-12.59
-14.59
-16.90
-19.59
-22.64
-25.92
-29.09
-31.59
-32.75
-31.97
-29.00
-24.07
-17.87
-11.29
-5.11
0.16
4.38
7.65
10.12
11.88
12.93
13.34
13.24
12.89
12.62
12.68
13.16
13.98
14.92
15.74
16.25
16.39
16.20
15.78
15.20
14.46
13.51
12.23
10.50
8.30
5.71
2.93
0.24
-2.16
-4.17
-5.92
-7.64
-9.63
-12.12
-15.17
-18.62
-22.07
-25.00
-26.86
-27.22
-25.86
-22.82
-18.40
-13.08
-7.41
-1.92
2.96
6.95
9.96
12.04
13.28
13.82
13.76
13.20
12.32
11.34
10.58
10.30
10.64
11.46
12.45
13.27
13.70
13.75
13.59
13.37
13.07
12.48
11.30
9.36
6.73
3.68
0.64
-2.13
-4.51
-6.61
-8.62
-10.73
-13.03
-15.56
-18.27
-21.14
-24.04
-26.72
-28.74
-29.60
-28.84
-26.26
-21.99
-16.51
-10.48
-4.56
0.75
5.20
8.72
11.36
13.21
14.33
14.79
14.75
14.42
14.06
13.87
13.93
14.16
14.44
14.67
14.86
15.09
15.47
16.01
16.53
16.73
16.34
15.21
13.44
11.24
8.82
6.33
3.85
1.36
-1.10
-3.46
-5.64
-7.59
-9.33
-10.97
-12.64
-14.48
-16.60
-19.09
-22.06
-25.47
-29.17
-32.72
-35.49
-36.76
-35.98
-32.95
-27.89
-21.43
-14.36
-7.43
-1.21
4.01
8.15
11.23
13.35
14.58
15.01
14.82
14.24
13.57
13.12
13.12
13.62
14.54
15.60
16.50
17.00
17.01
16.62
16.01
15.34
14.61
13.68
12.35
10.43
7.90
4.92
1.77
-1.21
-3.84
-6.04
-7.92
-9.67
-11.50
-13.57
-16.00
-18.79
-21.87
-25.06
-28.00
-30.18
-31.04
-30.06
-27.01
-22.07
-15.84
-9.19
-2.96
2.28
6.36
9.45
11.87
13.85
15.43
16.50
16.92
16.69
15.98
15.14
14.52
14.35
14.72
15.50
16.47
17.38
17.98
18.18
17.88
17.09
15.85
14.24
12.35
10.31
8.21
6.07
3.86
1.54
-0.90
-3.41
-5.85
-8.10
-10.10
-11.90
-13.64
-15.52
-17.74
-20.37
-23.38
-26.48
-29.26
-31.11
-31.44
-29.85
-26.28
-21.10
-14.96
-8.70
-2.96
1.84
5.63
8.53
10.70
12.22
13.08
13.24
12.73
11.74
10.59
9.63
9.12
9.11
9.52
10.16
10.86
11.49
12.01
12.34
12.39
12.00
10.99
9.28
6.93
4.15
1.24
-1.49
-3.85
-5.86
-7.72
-9.73
-12.17
-15.13
-18.44
-21.67
-24.24
-25.54
-25.16
-22.94
-19.05
-13.93
-8.19
-2.48
2.68
6.98
10.34
12.79
14.45
15.38
15.63
15.23
14.31
13.14
12.04
11.35
11.23
11.70
12.57
13.56
14.42
14.99
15.19
15.01
14.46
13.53
12.21
10.52
8.53
6.32
3.94
1.41
-1.26
-4.03
-6.77
-9.32
-11.57
-13.55
-15.47
-17.66
-20.33
-23.39
-26.39
-28.53
-29.04
-27.44
-23.78
-18.62
-12.79
-7.04
-1.84
2.70
6.66
10.14
13.06
15.20
16.37
16.54
15.95
15.08
14.39
14.19
14.55
15.28
16.12
16.83
17.31
17.56
17.59
17.34
16.73
15.70
14.22
12.37
10.23
7.84
5.21
2.36
-0.58
-3.38
-5.76
-7.55
-8.81
-9.85
-11.10
-12.96
-15.62
-19.00
-22.71
-26.15
-28.62
-29.51
-28.44
-25.41
-20.77
-15.16
-9.30
-3.76
1.11
5.20
8.55
11.22
13.18
14.41
14.90
14.79
14.36
13.99
13.94
14.36
15.13
16.03
16.82
17.31
17.48
17.39
17.09
16.59
15.86
14.83
13.46
11.76
9.75
7.48
4.98
2.31
-0.42
-3.05
-5.46
-7.56
-9.38
-11.01
-12.62
-14.40
-16.52
-19.04
-21.87
-24.68
-26.95
-28.05
-27.50
-25.09
-21.03
-15.84
-10.19
-4.68
0.27
4.45
7.80
10.28
11.92
12.79
13.05
12.98
12.89
13.03
13.48
14.18
14.94
15.53
15.78
15.63
15.13
14.40
13.55
12.69
11.87
11.06
10.17
9.10
7.77
6.16
4.34
2.43
0.58
-1.18
-2.85
-4.54
-6.32
-8.22
-10.19
-12.14
-14.01
-15.86
-17.84
-20.11
-22.69
-25.33
-27.48
-28.49
-27.82
-25.32
-21.32
-16.45
-11.44
-6.80
-2.76
0.71
3.69
6.19
8.08
9.23
9.59
9.28
8.63
8.00
7.71
7.96
8.76
9.94
11.24
12.34
12.99
13.07
12.58
11.64
10.46
9.21
8.02
6.92
5.80
4.52
2.96
1.13
-0.84
-2.73
-4.39
-5.78
-7.02
-8.31
-9.86
-11.77
-14.06
-16.61
-19.24
-21.62
-23.31
-23.82
-22.79
-20.20
-16.37
-11.89
-7.39
-3.31
0.21
3.23
5.84
8.03
9.66
10.58
10.78
10.46
9.91
9.45
9.24
9.31
9.59
10.06
10.68
11.44
12.22
12.84
13.07
12.71
11.70
10.14
8.24
6.22
4.25
2.40
0.64
-1.08
-2.82
-4.56
-6.26
-7.87
-9.36
-10.76
-12.16
-13.67
-15.44
-17.56
-20.05
-22.77
-25.44
-27.59
-28.66
-28.20
-26.03
-22.31
-17.53
-12.32
-7.29
-2.81
0.98
4.07
6.50
8.26
9.36
9.84
9.85
9.63
9.45
9.50
9.83
10.36
10.96
11.51
11.99
12.48
13.04
13.63
14.10
14.21
13.77
12.68
11.06
9.11
7.06
5.12
3.34
1.72
0.20
-1.31
-2.83
-4.39
-5.96
-7.50
-8.95
-10.30
-11.58
-12.91
-14.46
-16.42
-18.90
-21.87
-25.04
-27.91
-29.83
-30.19
-28.60
-25.05
-19.93
-13.88
-7.68
-1.96
2.89
6.68
9.40
11.10
11.90
11.98
11.56
10.93
10.35
10.05
10.13
10.58
11.30
12.17
13.09
14.00
14.81
15.40
15.63
15.39
14.65
13.49
12.07
10.54
8.99
7.42
5.78
4.06
2.27
0.45
-1.37
-3.23
-5.15
-7.10
-8.99
-10.67
-12.08
-13.34
-14.73
-16.63
-19.27
-22.55
-26.02
-28.96
-30.57
-30.30
-27.94
-23.74
-18.28
-12.30
-6.51
-1.45
2.59
5.53
7.46
8.53
8.95
8.91
8.61
8.20
7.82
7.58
7.54
7.72
8.11
8.64
9.22
9.76
10.15
10.34
10.29
10.01
9.51
8.80
7.81
6.50
4.83
2.83
0.65
-1.48
-3.38
-4.93
-6.20
-7.40
-8.78
-10.57
-12.84
-15.52
-18.36
-21.04
-23.18
-24.39
-24.36
-22.88
-19.91
-15.66
-10.53
-5.07
0.15
4.70
8.31
10.94
12.66
13.63
14.00
13.88
13.35
12.56
11.74
11.19
11.14
11.72
12.81
14.14
15.39
16.28
16.69
16.62
16.13
15.27
14.03
12.41
10.49
8.40
6.34
4.45
2.72
1.02
-0.79
-2.84
-5.07
-7.34
-9.45
-11.29
-12.91
-14.49
-16.26
-18.46
-21.19
-24.41
-27.89
-31.19
-33.68
-34.68
-33.65
-30.40
-25.20
-18.74
-11.88
-5.44
0.12
4.62
8.16
10.86
12.78
13.90
14.21
13.84
13.04
12.17
11.54
11.37
11.73
12.53
13.65
14.91
16.11
17.04
17.54
17.55
17.07
16.18
14.96
13.43
11.62
9.58
7.38
5.18
3.03
0.95
-1.16
-3.38
-5.74
-8.16
-10.49
-12.67
-14.75
-16.89
-19.34
-22.23
-25.56
-29.10
-32.43
-34.96
-36.06
-35.22
-32.20
-27.15
-20.60
-13.33
-6.17
0.20
5.42
9.36
12.10
13.81
14.68
14.93
14.79
14.46
14.12
13.87
13.80
13.95
14.39
15.15
16.24
17.56
18.90
19.96
20.47
20.28
19.40
17.99
16.27
14.40
12.42
10.33
8.08
5.70
3.31
0.98
-1.25
-3.41
-5.58
-7.79
-9.99
-12.08
-14.04
-16.02
-18.30
-21.15
-24.65
-28.48
-31.94
-34.14
-34.29
-31.96
-27.27
-20.78
-13.33
-5.79
1.14
7.04
11.71
15.12
17.29
18.32
18.36
17.67
16.57
15.39
14.43
13.86
13.75
14.06
14.67
15.46
16.29
17.07
17.72
18.15
18.28
17.97
17.10
15.54
13.28
10.44
7.22
3.91
0.73
-2.18
-4.81
-7.23
-9.51
-11.75
-14.04
-16.50
-19.26
-22.36
-25.69
-28.88
-31.34
-32.40
-31.48
-28.31
-23.04
-16.27
-8.83
-1.58
4.82
9.97
13.78
16.28
17.56
17.72
16.90
15.36
13.48
11.75
10.58
10.22
10.63
11.60
12.81
14.01
