1608093787.00
64.000000
-0.00
-0.00
-0.00
-0.00
-0.00
-0.00
-0.00
-0.00
-0.00
-0.00
0.00
0.01
0.01
-0.00
-0.03
-0.05
-0.05
0.00
0.13
0.36
0.66
1.01
1.37
1.72
2.06
2.40
2.79
3.24
3.80
4.42
5.06
5.66
6.20
6.68
7.15
7.68
8.31
9.14
10.09
11.04
11.88
12.56
13.14
13.76
14.65
15.96
17.91
20.32
22.90
25.38
27.58
29.57
31.68
34.32
37.81
42.54
48.15
54.10
59.83
64.97
69.58
74.14
79.34
85.71
93.76
103.00
112.62
121.73
129.77
136.75
143.30
150.75
157.77
166.64
177.95
191.79
206.97
220.57
228.25
225.36
208.53
176.87
132.76
80.05
23.07
-34.94
-92.44
-149.16
-205.23
-260.37
-313.74
-363.87
-409.83
-450.91
-486.50
-515.74
-537.23
-549.22
-549.96
-538.37
-514.21
-478.67
-433.88
-382.45
-327.02
-269.84
-212.63
-156.66
-102.95
-52.37
-5.90
35.58
71.43
101.35
125.50
144.38
158.69
169.15
176.37
180.75
182.57
182.07
179.51
175.23
169.65
163.18
156.15
148.81
141.30
133.69
126.02
118.33
110.69
103.16
95.80
88.68
81.83
75.25
68.95
62.95
57.25
51.86
46.78
42.03
37.59
33.45
29.61
26.07
22.81
19.83
17.11
14.67
12.48
10.54
8.83
7.35
6.07
4.97
4.05
3.27
2.62
2.09
1.65
1.30
1.01
0.79
0.61
0.47
0.37
0.28
0.23
0.18
0.15
0.13
0.13
0.13
0.14
0.16
0.19
0.22
0.25
0.29
0.34
0.38
0.43
0.48
0.52
0.58
0.63
0.68
0.74
0.80
0.87
0.94
1.02
1.11
1.20
1.31
1.44
1.57
1.73
1.90
2.10
2.31
2.55
2.82
3.12
3.44
3.80
4.19
4.61
5.07
5.57
6.10
6.68
7.30
7.95
8.66
9.40
10.20
11.04
11.91
12.84
13.81
14.85
15.94
17.11
18.32
19.59
20.88
22.14
23.30
24.28
24.96
25.19
24.89
23.92
22.23
19.78
16.60
12.75
8.39
3.68
-1.17
-5.92
-10.36
-14.30
-17.56
-20.03
-21.68
-22.47
-22.47
-21.77
-20.47
-18.70
-16.58
-14.25
-11.81
-9.35
-6.92
-4.62
-2.44
-0.39
1.53
3.36
5.10
6.79
8.45
10.18
11.93
13.71
15.59
17.61
19.82
22.23
24.83
27.66
30.80
34.08
37.47
41.03
44.78
48.76
52.89
57.13
61.41
65.87
70.23
74.49
78.78
83.21
87.77
92.32
96.62
100.46
103.93
106.61
108.51
109.78
110.42
110.09
107.92
102.50
91.77
78.22
62.62
45.71
28.21
10.64
-6.82
-24.30
-42.10
-60.52
-79.70
-100.44
-123.10
-147.48
-172.41
-195.67
-214.39
-225.89
-228.68
-223.01
-211.25
-196.23
-180.26
-164.45
-148.81
-132.90
-116.52
-100.08
-84.24
-69.77
-56.68
-44.42
-32.32
-20.22
-8.68
1.18
8.26
12.07
12.88
11.82
10.45
10.10
11.49
14.50
18.33
21.85
24.04
24.19
22.17
18.37
13.55
8.52
3.99
0.45
-1.76
-2.44
-1.57
0.60
3.33
5.50
5.80
3.24
-2.51
-10.99
-21.17
-31.85
-42.03
-50.98
-58.21
-63.26
-65.71
-65.36
-62.41
-57.62
-52.03
-46.66
-42.05
-38.14
-34.33
-29.84
-24.12
-17.11
-9.30
-1.49
5.44
10.86
14.51
16.55
17.39
17.54
17.47
17.54
17.97
18.82
20.09
21.63
23.32
24.99
26.59
28.14
29.78
31.62
33.61
35.48
36.81
37.21
36.55
35.05
33.17
31.40
30.00
28.82
27.41
25.27
22.12
18.06
13.47
8.91
4.79
1.33
-1.44
-3.63
-5.38
-6.82
-8.02
-8.99
-9.61
-9.61
-8.67
-6.53
-3.14
1.20
5.96
10.47
14.19
16.79
18.24
18.67
18.26
17.16
15.49
13.42
11.19
9.13
7.56
6.67
6.43
6.62
6.92
7.09
7.06
6.92
6.85
6.95
7.18
7.40
7.42
7.15
6.56
5.76
4.84
3.89
2.92
1.93
0.90
-0.17
-1.31
-2.49
-3.66
-4.74
-5.56
-6.06
-6.27
-6.41
-6.84
-7.85
-9.57
-11.82
-14.20
-16.31
-17.91
-19.08
-20.13
-21.46
-23.28
-25.52
-27.89
-29.98
-31.46
-32.08
-31.67
-30.10
-27.33
-23.53
-19.27
-15.47
-13.23
-13.31
-15.72
-19.41
-22.57
-23.18
-19.86
-12.37
-1.70
10.43
22.22
32.42
40.47
46.39
50.37
52.59
53.16
52.33
50.60
48.66
47.06
45.92
44.76
42.70
38.81
32.57
24.04
13.87
2.99
-7.74
-17.68
-26.52
-34.18
-40.65
-45.98
-50.27
-53.70
-56.58
-59.26
-61.90
-64.43
-66.35
-66.99
-65.70
-62.12
-56.37
-48.94
-40.55
-31.85
-23.32
-15.32
-8.12
-1.93
3.16
7.29
10.88
14.43
18.26
22.26
25.90
28.49
29.50
28.90
27.20
25.20
23.59
22.69
22.31
22.01
21.43
20.46
19.31
18.34
17.78
17.62
17.53
17.19
16.38
15.18
13.85
12.67
11.77
11.05
10.29
9.27
7.87
6.14
4.28
2.57
1.27
0.57
0.49
0.85
1.34
1.53
1.11
-0.06
-1.82
-3.72
-5.12
-5.34
-3.90
-0.62
4.30
10.27
16.57
22.47
27.44
31.23
33.86
35.51
36.44
36.88
37.11
37.35
37.87
38.87
40.40
42.42
44.73
47.15
49.48
51.65
53.62
55.41
57.07
58.53
59.66
60.17
59.64
57.66
54.03
48.92
42.98
37.11
32.07
28.16
25.08
22.14
18.66
14.36
9.50
4.74
0.72
-2.18
-3.99
-5.07
-5.75
-6.22
-6.46
-6.32
-5.78
-4.99
-4.39
-4.51
-5.86
-8.64
-12.69
-17.53
-22.55
-27.27
-31.55
-35.58
-39.69
-44.15
-48.99
-53.99
-58.84
-63.23
-66.90
-69.59
-70.99
-70.81
-69.03
-66.09
-62.91
-60.43
-59.00
-57.95
-55.71
-50.42
-41.00
-27.74
-12.39
2.62
15.13
23.98
29.18
31.44
31.55
30.01
27.04
22.89
18.05
13.31
9.41
6.69
4.91
3.37
1.26
-1.90
-6.06
-10.64
-14.91
-18.35
-20.87
-22.83
-24.85
-27.47
-31.04
-35.56
-40.73
-45.96
-50.37
-52.94
-52.73
-49.27
-42.79
-34.33
-25.32
-17.11
-10.43
-5.27
-1.08
2.81
6.75
10.69
14.29
17.32
19.76
21.89
24.11
26.70
29.71
32.91
35.90
38.25
39.65
39.96
39.24
37.69
35.59
33.18
30.65
28.09
25.53
23.00
20.57
18.38
16.65
15.52
15.01
14.93
14.92
14.57
13.59
11.90
9.68
7.25
4.89
2.72
0.65
-1.59
-4.32
-7.80
-12.17
-17.42
-23.36
-29.64
-35.70
-40.88
-44.61
-46.60
-47.07
-46.62
-46.07
-46.14
-47.25
-49.45
-52.56
-56.35
-60.61
-65.19
-69.93
-74.53
-78.57
-81.53
-82.95
-82.65
-80.90
-78.52
-76.70
-76.53
-78.46
-81.80
-84.64
-84.32
-78.14
-64.35
-42.59
-14.02
19.20
54.72
90.68
126.13
160.78
194.60
227.06
256.69
280.97
296.78
301.17
292.17
269.42
234.53
190.96
143.70
98.47
60.64
33.90
19.18
14.23
14.16
13.04
6.01
-8.91
-30.09
-52.84
-70.97
-78.80
-72.74
-52.25
-19.73
19.90
60.17
94.12
115.54
120.08
106.18
75.51
32.73
-15.52
-62.03
-100.62
-127.17
-140.17
-140.46
-130.51
-113.57
-92.85
-71.05
-50.31
-32.29
-18.39
-9.70
-6.61
-8.22
-11.96
-13.94
-10.15
2.09
22.91
49.58
76.98
98.98
109.97
106.06
86.01
51.69
8.09
-37.35
-76.38
-102.17
-111.43
-105.34
-88.83
-68.33
-49.17
-33.99
-22.68
-13.68
-5.47
2.47
9.71
15.57
19.72
22.30
23.54
23.29
20.86
15.49
6.96
-3.96
-15.61
-25.97
-33.40
-37.24
-37.81
-36.18
-33.65
-31.26
-29.53
-28.55
-28.12
-28.01
-28.09
-28.40
-28.94
-29.60
-30.10
-30.08
-29.19
-27.25
-24.25
-20.37
-15.90
-11.18
-6.61
-2.56
0.60
2.70
3.76
4.02
3.84
3.52
3.28
3.21
3.31
3.61
4.13
4.76
5.36
5.66
5.50
4.89
4.05
3.30
2.91
2.89
3.08
3.20
3.04
2.52
1.64
0.41
-1.24
-3.38
-6.10
-9.30
-12.78
-16.26
-19.46
-22.18
-24.27
-25.57
-25.89
-25.06
-22.98
-19.74
-15.61
-11.02
-6.44
-2.22
1.50
4.80
7.83
10.75
13.54
16.07
18.24
20.03
21.65
23.36
25.30
27.38
29.27
30.55
30.99
30.63
29.73
28.64
27.54
26.40
25.03
23.30
21.29
19.31
17.61
16.29
15.16
13.94
12.63
11.57
11.46
12.85
15.79
19.57
22.97
24.78
24.30
21.64
17.59
13.16
9.16
5.88
3.22
0.76
-1.86
-4.81
-8.03
-11.25
-14.01
-15.85
-16.37
-15.40
-13.08
-9.89
-6.61
-4.05
-2.86
-3.22
-4.86
-7.14
-9.38
-11.15
-12.34
-13.13
-13.80
-14.46
-15.05
-15.37
-15.28
-14.72
-13.79
-12.68
-11.55
-10.53
-9.69
-9.07
-8.79
-8.93
-9.58
-10.76
-12.36
-14.14
-15.81
-17.09
-17.81
-17.99
-17.72
-17.16
-16.40
-15.50
-14.54
-13.68
-13.16
-13.17
-13.74
-14.60
-15.36
-15.65
-15.43
-15.06
-15.28
-16.84
-20.24
-25.48
-31.81
-37.90
-42.07
-42.77
-39.11
-31.19
-20.15
-7.85
3.74
13.15
19.71
23.69
25.94
27.49
29.14
31.20
33.50
35.53
36.71
36.65
35.34
33.03
30.09
26.71
22.83
18.26
12.89
7.01
1.25
-3.56
-6.81
-8.40
-8.83
-9.00
-9.85
-12.06
-15.88
-21.13
-27.27
-33.64
-39.47
-43.91
-46.11
-45.40
-41.61
-35.39
-28.25
-22.27
-19.40
-20.77
-26.21
-34.37
-43.25
-50.97
-56.32
-58.93
-59.05
-57.17
-53.72
-48.97
-43.15
-36.56
-29.64
-22.90
-16.82
-11.69
-7.61
-4.48
-2.09
-0.24
1.20
2.33
3.21
4.04
5.11
6.80
9.38
12.94
17.34
22.31
27.71
33.59
40.15
47.53
55.41
62.89
68.56
70.93
68.99
62.64
52.79
41.16
29.70
20.06
13.20
9.29
7.86
8.20
9.62
11.66
14.03
16.52
18.84
20.75
22.16
23.31
24.72
26.94
30.14
33.95
37.58
40.15
41.32
41.46
41.62
42.99
46.40
51.87
58.64
65.49
71.24
75.21
77.25
77.76
77.51
77.56
79.03
82.79
88.88
96.06
101.83
103.15
97.55
84.39
65.21
43.25
22.08
4.24
-9.49
-19.91
-28.60
-36.95
-45.61
-54.49
-62.96
-70.27
-75.63
-78.54
-78.89
-77.18
-74.42
-71.90
-70.56
-70.47
-70.66
-69.45
-65.29
-57.53
-46.92
-35.42
-25.40
-18.81
-16.44
-17.84
-21.67
-26.30
-30.45
-33.47
-35.32
-36.33
-36.93
-37.48
-38.32
-39.84
-42.46
-46.45
-51.59
-56.96
-61.10
-62.56
-60.52
-55.23
-47.81
-39.83
-32.48
-26.14
-20.37
-14.48
-8.13
-1.65
4.14
8.39
10.57
10.74
9.52
7.99
7.22
7.96
10.39
14.29
19.02
23.54
26.76
27.91
27.16
25.29
23.27
21.99
22.19
24.07
26.84
28.96
28.60
24.94
17.97
8.36
-2.71
-13.51
-22.76
-30.69
-39.09
-50.15
-64.19
-79.27
-91.54
-95.90
-87.40
-63.48
-25.74
20.25
66.98
108.49
140.79
161.74
167.45
156.71
135.36
115.58
110.53
121.65
144.32
170.68
190.14
193.94
178.49
146.09
103.12
57.26
15.21
-17.44
-37.79
-46.07
-44.67
-36.88
-26.21
-16.15
-9.78
-9.45
-16.01
-29.58
-49.39
-72.93
-95.40
-110.89
-114.68
-105.29
-85.08
-58.56
-30.68
-4.97
17.35
36.91
54.57
70.02
81.38
86.17
82.94
72.00
55.39
36.08
16.90
-0.53
-16.07
-30.77
-45.98
-62.54
-80.50
-99.27
-117.98
-135.81
-152.11
-166.23
-177.48
-185.07
-188.35
-186.95
-180.78
-169.90
-154.42
-134.60
-111.14
-85.38
-59.22
-34.63
-13.11
4.83
19.55
31.83
42.25
50.91
57.53
61.84
64.04
64.89
65.48
66.88
69.66
73.47
76.84
77.31
72.30
60.25
41.73
19.69
-1.35
-16.85
-24.02
-22.59
-14.54
-2.89
9.55
20.96
30.45
37.51
41.55
41.99
38.66
32.28
24.53
17.42
12.49
10.13
9.58
9.45
8.60
6.70
4.23
1.95
0.33
-0.67
-1.43
-2.19
-2.79
-2.75
-1.73
0.10
1.89
2.43
0.59
-4.26
-12.15
-22.47
-34.15
-45.74
-55.69
-62.66
-66.00
-66.00
-63.87
-61.32
-59.90
-60.39
-62.61
-65.47
-67.49
-67.39
-64.48
-58.82
-51.07
-42.17
-32.92
-23.87
-15.27
-7.26
0.01
6.30
11.42
15.41
18.60
21.56
24.83
28.80
33.45
38.52
43.54
47.94
51.08
52.32
51.15
47.33
41.08
33.07
24.37
16.04
8.95
3.62
0.25
-1.13
-0.59
1.76
5.62
10.51
15.77
20.77
24.98
28.22
30.52
32.11
33.23
33.98
34.30
34.07
33.31
32.34
31.85
32.77
35.94
41.73
49.85
59.34
68.91
77.31
83.70
87.75
89.40
88.55
84.89
78.01
67.79
54.88
40.86
27.87
17.84
11.69
8.94
8.04
7.19
5.24
2.07
-1.67
-5.14
-7.90
-9.98
-11.60
-12.78
-13.24
-12.82
-11.97
-12.03
-14.86
-21.99
-33.67
-48.64
-64.60
-79.20
-90.99
-99.78
-106.12
-110.52
-112.79
-112.02
-107.11
-97.55
-83.78
-67.10
-49.08
-30.96
-13.42
3.29
18.92
32.96
44.68
53.27
58.19
59.39
57.28
52.66
46.50
39.65
32.77
26.26
20.38
15.35
11.47
9.18
8.87
10.72
14.41
18.87
22.47
23.38
20.31
13.01
2.71
-8.16
-16.52
-19.70
-16.24
-6.40
7.95
23.90
38.40
48.97
54.17
53.63
47.86
37.97
25.41
11.75
-1.58
-13.52
-23.48
-31.50
-38.04
-43.73
-49.08
-54.30
-59.38
-64.19
-68.58
-72.48
-75.74
-78.11
-79.19
-78.63
-76.22
-71.94
-66.05
-59.03
-51.48
-44.03
-37.26
-31.48
-26.66
-22.32
-17.62
-11.60
-3.42
7.29
20.29
34.69
49.21
62.60
74.01
83.37
91.30
98.83
106.87
115.84
125.46
134.94
143.22
149.20
151.82
149.99
142.72
129.45
110.51
87.35
62.33
37.92
15.91
-3.09
-19.40
-33.64
-46.13
-56.68
-64.85
-70.48
-73.94
-76.01
-77.51
-78.89
-80.27
-81.60
-82.94
-84.55
-86.73
-89.59
-93.02
-96.66
-100.12
-103.07
-105.34
-106.99
-108.27
-109.60
-111.35
-113.56
-115.85
-117.35
-116.98
-113.90
-107.78
-98.99
-88.33
-76.71
-64.81
-52.83
-40.58
-27.63
-13.61
1.60
17.91
35.00
52.49
69.95
86.88
102.66
116.58
127.91
136.06
140.76
142.16
140.74
137.23
132.27
126.28
119.26
110.97
101.03
89.27
75.92
61.70
47.66
34.91
24.28
16.14
10.34
6.36
3.60
1.68
0.48
0.18
1.06
3.33
6.96
11.72
17.14
22.61
27.45
30.96
32.60
32.14
29.79
26.14
22.08
18.46
15.81
14.25
13.57
13.32
13.08
12.54
11.56
10.28
9.01
8.11
7.87
8.34
9.22
9.96
9.94
8.68
5.95
1.91
-3.08
-8.47
-13.72
-18.34
-22.07
-24.90
-27.11
-29.10
-31.24
-33.62
-36.05
-38.20
-39.87
-41.21
-42.58
-44.40
-46.75
-49.32
-51.53
-52.85
-53.18
-52.84
-52.40
-52.30
-52.64
-53.23
-53.76
-54.14
-54.52
-55.26
-56.66
-58.64
-60.81
-62.46
-62.75
-60.92
-56.45
-49.21
-39.52
-28.18
-16.24
-4.78
5.41
13.95
20.90
26.52
31.10
34.78
37.63
39.70
41.11
42.07
42.71
43.03
42.85
41.98
40.37
38.14
35.63
33.19
31.16
29.63
28.56
27.76
26.97
25.96
24.60
22.83
20.68
18.19
15.40
12.35
9.10
5.74
2.46
-0.54
-3.09
-5.17
-6.91
-8.49
-10.11
-11.83
-13.53
-15.04
-16.13
-16.76
-17.06
-17.42
-18.35
-20.28
-23.24
-26.70
-29.65
-30.85
-29.33
-24.76
-17.65
-9.09
-0.39
7.42
13.79
18.72
22.50
25.54
28.08
30.11
31.34
31.35
29.78
26.55
22.03
16.98
12.35
9.00
7.47
7.78
9.56
12.18
14.97
17.33
18.81
19.13
18.18
16.09
13.13
9.72
6.30
3.23
0.70
-1.27
-2.77
-4.00
-5.18
-6.50
-8.10
-10.04
-12.30
-14.70
-17.03
-19.03
-20.58
-21.73
-22.70
-23.75
-25.09
-26.82
-28.97
-31.55
-34.57
-37.93
-41.21
-43.61
-44.06
-41.60
-35.74
-26.78
-15.81
-4.32
6.18
14.66
20.72
24.52
26.54
27.29
27.16
26.36
25.09
23.59
22.19
21.27
21.09
21.67
22.78
24.02
25.01
25.53
25.60
25.37
24.98
24.46
23.69
22.51
20.79
18.53
15.87
13.08
10.41
8.05
6.14
4.67
3.51
2.44
1.21
-0.44
-2.57
-5.08
-7.71
-10.19
-12.33
-14.16
-15.89
-17.83
-20.28
-23.46
-27.49
-32.25
-37.29
-41.77
-44.63
-44.89
-42.12
-36.76
-30.11
-23.93
-19.81
-18.62
-20.36
-24.18
-28.89
-33.29
-36.52
-38.10
-38.02
-36.72
-35.07
-34.25
-35.54
-39.84
-47.39
-57.48
-68.62
-78.88
-86.40
-89.89
-88.82
-83.51
-74.87
-64.24
-52.99
-42.36
-33.13
-25.57
-19.37
-13.94
-8.65
-3.20
2.29
7.43
11.81
15.24
17.82
19.72
20.97
21.36
20.47
17.99
13.97
8.95
3.70
-1.10
-5.21
-9.03
-13.35
-19.00
-26.50
-35.64
-45.49
-54.56
-61.14
-63.77
-61.66
-54.92
-44.59
-32.34
-20.03
-9.21
-0.76
5.15
8.97
11.34
12.87
13.85
14.42
14.58
14.40
14.20
14.48
15.90
19.01
24.08
30.92
38.93
47.24
54.93
61.27
65.87
68.66
69.88
69.90
69.17
68.11
67.01
66.03
65.22
64.54
63.93
63.36
62.81
62.27
61.64
60.75
59.39
57.39
54.71
51.47
47.86
44.10
40.32
36.53
32.70
28.71
24.33
19.20
12.90
5.13
-3.84
-13.02
-20.65
-24.70
-23.56
-16.76
-5.20
9.11
23.71
36.57
46.49
53.23
57.16
58.83
58.66
56.93
53.86
49.81
45.38
41.14
37.56
34.74
32.49
30.47
28.46
26.43
24.56
23.09
22.20
21.92
22.28
23.29
24.93
26.96
28.85
29.82
29.20
26.75
22.86
18.39
14.21
10.74
7.85
5.06
2.00
-1.24
-4.13
-6.06
-6.80
-6.71
-6.53
-6.96
-8.21
-9.93
-11.38
-11.90
-11.19
-9.52
-7.48
-5.75
-4.75
-4.57
-4.92
-5.26
-5.02
-3.71
-1.12
2.65
7.17
11.84
16.01
19.26
21.41
22.51
22.78
22.43
21.60
20.33
18.63
16.52
14.07
11.46
8.89
6.53
4.46
2.64
0.95
-0.79
-2.75
-4.97
-7.42
-9.98
-12.46
-14.70
-16.53
-17.88
-18.76
-19.25
-19.53
-19.76
-20.05
-20.44
-20.82
-21.06
-21.02
-20.62
-19.86
-18.82
-17.57
-16.18
-14.68
-13.05
-11.23
-9.17
-6.81
-4.14
-1.27
1.63
4.21
6.09
6.89
6.33
4.35
1.13
-2.87
-7.00
-10.53
-12.84
-13.64
-12.97
-11.18
-8.82
-6.41
-4.36
-2.92
-2.17
-2.03
-2.32
-2.73
-2.96
-2.74
-2.00
-0.80
0.58
1.93
3.05
3.92
4.59
5.13
5.59
5.97
6.27
6.53
6.81
7.20
7.78
8.51
9.27
9.91
10.28
10.38
10.31
10.23
10.25
10.30
10.19
9.70
8.78
7.56
6.33
5.36
4.70
4.24
3.74
3.05
2.21
1.43
1.00
1.03
1.41
1.83
1.93
1.48
0.46
-0.98
-2.64
-4.39
-6.24
-8.21
-10.30
-12.44
-14.50
-16.48
-18.52
-20.93
-24.01
-27.86
-32.31
-36.88
-40.92
-43.78
-44.98
-44.26
-41.66
-37.43
-32.02
-26.04
-20.14
-14.99
-11.08
-8.69
-7.84
-8.22
-9.32
-10.60
-11.60
-12.06
-11.90
-11.20
-9.98
-8.21
-5.79
-2.70
0.95
4.86
8.59
11.73
14.02
15.41
16.00
15.97
15.50
14.72
13.73
12.72
11.89
11.45
11.54
12.05
12.76
13.30
13.43
13.09
12.47
11.86
11.53
11.63
12.09
12.74
13.39
13.90
14.25
14.45
14.50
14.32
13.82
12.88
11.51
9.80
7.92
6.10
4.52
3.36
2.71
2.66
3.20
4.22
5.50
6.72
7.61
7.98
7.87
7.48
7.11
6.96
7.18
7.76
8.59
9.51
10.29
10.65
10.34
9.22
7.28
4.73
1.97
-0.61
-2.66
-4.07
-4.90
-5.37
-5.69
-6.02
-6.42
-6.95
-7.68
-8.69
-10.02
-11.60
-13.23
-14.66
-15.72
-16.35
-16.65
-16.78
-16.89
-17.02
-17.11
-17.03
-16.71
-16.09
-15.11
-13.68
-11.66
-8.97
-5.68
-2.11
1.24
3.80
5.18
5.30
4.39
2.97
1.56
0.58
0.19
0.34
0.79
1.23
1.43
1.25
0.67
-0.24
-1.31
-2.37
-3.26
-3.90
-4.30
-4.56
-4.78
-5.07
-5.51
-6.11
-6.81
-7.52
-8.14
-8.58
-8.76
-8.66
-8.25
-7.53
-6.55
-5.42
-4.33
-3.46
-2.99
-2.96
-3.30
-3.84
-4.41
-4.90
-5.24
-5.41
-5.41
-5.26
-4.98
-4.68
-4.43
-4.30
-4.28
-4.24
-3.98
-3.33
-2.26
-0.84
0.69
2.10
3.20
3.93
4.32
4.45
4.43
4.27
4.00
3.62
3.19
2.73
2.29
1.90
1.56
1.26
1.01
0.86
0.81
0.92
1.18
1.57
2.04
2.47
2.70
2.60
2.09
1.17
-0.00
-1.27
-2.49
-3.60
-4.57
-5.42
-6.10
-6.58
-6.79
-6.77
-6.54
-6.16
-5.69
-5.12
-4.46
-3.75
-3.06
-2.53
-2.31
-2.47
-2.97
-3.65
-4.33
-4.84
-5.14
-5.32
-5.53
-5.86
-6.23
-6.44
-6.25
-5.49
-4.20
-2.57
-0.88
0.62
1.76
2.50
2.83
2.84
2.63
2.32
1.99
1.71
1.50
1.34
1.21
1.11
1.08
1.10
1.13
1.08
0.90
0.56
0.13
-0.25
-0.46
-0.42
-0.17
0.15
0.37
0.36
0.08
-0.36
-0.81
-1.11
-1.24
-1.25
-1.27
-1.39
-1.61
-1.85
-1.99
-1.95
-1.77
-1.58
-1.51
-1.70
-2.16
-2.85
-3.63
-4.37
-4.95
-5.30
-5.44
-5.46
-5.51
-5.74
-6.24
-7.00
-7.88
-8.67
-9.09
-8.94
-8.04
-6.37
-4.06
-1.37
1.34
3.67
5.35
6.24
6.42
6.14
5.66
5.23
4.92
4.70
4.45
4.08
3.63
3.22
3.02
3.12
3.47
3.90
4.23
4.35
4.28
4.13
4.01
3.95
3.90
3.74
3.39
2.87
2.27
1.67
1.17
0.80
0.55
0.40
0.32
0.25
0.12
-0.12
-0.48
-0.92
-1.34
-1.68
-1.95
-2.21
-2.55
-3.00
-3.51
-4.00
-4.45
-4.88
-5.39
-6.07
-7.01
-8.22
-9.68
-11.29
-12.87
-14.13
-14.73
-14.36
-12.85
-10.30
-7.02
-3.48
-0.14
2.72
4.97
6.62
7.73
8.36
8.59
8.53
8.35
8.21
8.18
8.22
8.17
7.86
7.20
6.20
5.00
3.72
2.47
1.26
0.11
-0.93
-1.72
-2.09
-1.97
-1.47
-0.87
-0.53
-0.65
-1.20
-1.97
-2.68
-3.18
-3.49
-3.74
-4.03
-4.37
-4.63
-4.72
-4.58
-4.36
-4.25
-4.42
-4.97
-5.85
-6.94
-8.07
-9.06
-9.78
-10.21
-10.43
-10.67
-11.16
-12.08
-13.46
-15.20
-17.01
-18.55
-19.43
-19.27
-17.79
-14.91
-10.85
-6.11
-1.36
2.76
5.85
7.84
8.93
9.39
9.46
9.24
8.70
7.75
6.40
4.77
3.10
1.71
0.84
0.59
0.86
1.38
1.82
1.91
1.55
0.86
0.07
-0.57
-0.90
-0.89
-0.65
-0.34
-0.08
0.03
-0.09
-0.48
-1.18
-2.21
-3.49
-4.90
-6.22
-7.17
-7.53
-7.15
-6.07
-4.50
-2.74
-1.09
0.20
1.02
1.38
1.38
1.13
0.70
0.12
-0.63
-1.60
-2.78
-4.12
-5.52
-6.79
-7.71
-8.05
-7.65
-6.57
-5.06
-3.59
-2.67
-2.65
-3.61
-5.40
-7.67
-10.11
-12.58
-15.04
-17.50
-19.85
-21.86
-23.21
-23.68
-23.30
-22.22
-20.68
-18.76
-16.37
-13.44
-10.00
-6.41
-3.08
-0.28
2.25
5.16
9.23
14.86
21.81
29.24
36.12
41.76
46.05
49.34
52.06
54.41
56.24
57.22
57.10
55.91
53.92
51.48
48.81
45.98
42.92
39.58
35.94
32.06
28.00
23.79
19.40
14.77
9.86
4.75
-0.41
-5.35
-9.74
-13.30
-15.82
-17.31
-18.01
-18.31
-18.60
-19.15
-19.98
-20.86
-21.51
-21.65
-21.14
-20.02
-18.39
-16.34
-13.97
-11.41
-8.90
-6.79
-5.35
-4.67
-4.60
-4.72
-4.55
-3.82
-2.53
-0.95
0.49
1.48
1.96
2.11
2.15
2.23
2.27
2.01
1.24
-0.06
-1.61
-3.00
-3.79
-3.82
-3.23
-2.34
-1.52
-0.94
-0.58
-0.24
0.24
0.87
1.51
1.95
2.03
1.73
1.17
0.55
0.05
-0.25
-0.38
-0.49
-0.69
-0.98
-1.28
-1.46
-1.43
-1.16
-0.70
-0.10
0.62
1.45
2.40
3.45
4.51
5.50
6.34
6.99
7.39
7.44
7.03
6.00
4.34
2.16
-0.24
-2.57
-4.59
-6.19
-7.43
-8.44
-9.42
-10.55
-11.99
-13.77
-15.79
-17.82
-19.54
-20.65
-21.02
-20.74
-20.04
-19.22
-18.48
-17.90
-17.39
-16.83
-16.07
-15.00
-13.58
-11.79
-9.70
-7.47
-5.34
-3.53
-2.21
-1.41
-1.04
-0.96
-1.11
-1.51
-2.21
-3.23
-4.41
-5.46
-6.02
-5.85
-4.93
-3.49
-1.83
-0.22
1.25
2.62
4.02
5.55
7.20
8.93
10.71
12.52
14.36
16.16
17.77
19.01
19.71
19.76
19.24
18.24
16.91
15.38
13.68
11.86
9.97
8.11
6.37
4.86
3.59
2.59
1.80
1.19
0.67
0.23
-0.14
-0.46
-0.75
-1.05
-1.41
-1.88
-2.43
-3.01
-3.52
-3.88
-4.02
-3.99
-3.83
-3.62
-3.38
-3.09
-2.72
-2.27
-1.80
-1.42
-1.24
-1.32
-1.64
-2.15
-2.80
-3.58
-4.47
-5.43
-6.32
-7.01
-7.35
-7.37
-7.21
-7.10
-7.26
-7.77
-8.54
-9.38
-10.04
-10.31
-10.06
-9.19
-7.67
-5.55
-2.97
-0.18
2.51
4.79
6.46
7.48
7.94
8.02
7.92
7.82
7.82
7.94
8.20
8.62
9.23
10.09
11.23
12.59
14.01
15.23
16.07
16.47
16.58
16.63
16.84
17.23
17.66
17.90
17.73
17.08
15.99
14.60
13.01
11.32
9.57
7.80
6.03
4.24
2.40
0.49
-1.43
-3.28
-4.90
-6.19
-7.09
-7.60
-7.73
-7.51
-6.97
-6.21
-5.42
-4.85
-4.70
-5.08
-5.96
-7.21
-8.72
-10.43
-12.30
-14.27
-16.17
-17.67
-18.44
-18.21
-17.00
-15.07
-12.86
-10.85
-9.31
-8.29
-7.65
-7.20
-6.82
-6.53
-6.43
-6.57
-6.95
-7.46
-7.99
-8.51
-9.05
-9.64
-10.26
-10.77
-10.98
-10.78
-10.17
-9.30
-8.44
-7.87
-7.69
-7.84
-8.19
-8.61
-9.07
-9.64
-10.34
-10.99
-11.22
-10.61
-8.88
-6.10
-2.66
0.80
3.71
5.68
6.63
6.67
6.03
5.04
4.07
3.49
3.58
4.39
5.60
6.61
6.75
5.51
2.78
-1.08
-5.43
-9.63
-13.28
-16.31
-18.89
-21.20
-23.22
-24.68
-25.21
-24.53
-22.65
-19.97
-17.04
-14.39
-12.24
-10.50
-8.81
-6.84
-4.45
-1.80
0.74
2.81
4.29
5.36
6.37
7.69
9.44
11.42
13.22
14.46
14.93
14.74
14.18
13.62
13.31
13.29
13.51
13.81
14.06
14.19
14.11
13.73
13.03
12.01
10.80
9.61
8.60
7.88
7.37
6.95
6.46
5.84
5.12
4.39
3.72
3.14
2.64
2.23
1.91
1.69
1.53
1.35
1.02
0.49
-0.22
-0.98
-1.66
-2.20
-2.53
-2.66
-2.51
-2.07
-1.30
-0.31
0.71
1.55
2.07
2.27
2.27
2.26
2.34
2.48
2.60
2.56
2.34
2.02
1.74
1.63
1.74
2.04
2.40
2.75
3.01
3.19
3.28
3.24
3.06
2.76
2.43
2.19
2.14
2.26
2.39
2.31
1.85
1.03
0.06
-0.74
-1.08
-0.85
-0.16
0.71
1.42
1.75
1.58
0.96
0.04
-1.01
-2.06
-3.01
-3.81
-4.46
-4.94
-5.26
-5.44
-5.54
-5.62
-5.81
-6.19
-6.79
-7.50
-8.11
-8.29
-7.77
-6.46
-4.46
-2.13
0.18
2.12
3.55
4.42
4.84
4.93
4.84
4.70
4.65
4.79
5.13
5.60
6.04
6.33
6.38
6.20
5.87
5.44
4.96
4.40
3.79
3.12
2.47
1.89
1.45
1.17
1.00
0.85
0.62
0.29
-0.09
-0.41
-0.56
-0.48
-0.22
0.06
0.21
0.11
-0.29
-0.95
-1.77
-2.60
-3.22
-3.48
-3.23
-2.49
-1.48
-0.49
0.13
0.22
-0.19
-0.85
-1.49
-1.89
-2.05
-2.08
-2.17
-2.45
-2.97
-3.68
-4.41
-4.99
-5.24
-5.03
-4.34
-3.19
-1.72
-0.08
1.48
2.74
3.51
3.73
3.48
2.95
2.37
1.93
1.72
1.80
2.18
2.90
3.93
5.14
6.32
7.21
7.68
7.74
7.59
7.48
7.56
7.77
7.91
7.69
6.97
5.74
4.17
2.48
0.84
-0.64
-1.98
-3.17
-4.17
-4.84
-5.07
-4.81
-4.17
-3.45
-2.97
-2.98
-3.54
-4.51
-5.64
-6.72
-7.60
-8.22
-8.55
-8.57
-8.28
-7.75
-7.15
-6.74
-6.79
-7.45
-8.71
-10.32
-11.90
-12.95
-13.08
-12.02
-9.82
-6.78
-3.42
-0.31
2.11
3.68
4.52
4.92
5.22
5.66
6.31
7.08
7.79
8.28
8.47
8.40
8.20
7.99
7.86
7.82
7.84
7.84
7.79
7.67
7.48
7.22
6.86
6.35
5.69
4.93
4.20
3.61
3.23
3.05
2.97
2.85
2.62
2.26
1.85
1.50
1.27
1.13
0.94
0.55
-0.13
-1.04
-2.00
-2.80
-3.35
-3.69
-4.03
-4.61
-5.56
-6.93
-8.60
-10.38
-12.03
-13.28
-13.83
-13.46
-12.02
-9.55
-6.33
-2.76
0.70
3.65
5.89
7.35
8.16
8.49
8.53
8.44
8.27
8.01
7.67
7.27
6.86
6.56
6.47
6.59
6.85
7.17
7.38
7.40
7.14
6.60
5.81
4.85
3.81
2.79
1.83
0.97
0.19
-0.52
-1.17
-1.75
-2.25
-2.66
-2.98
-3.21
-3.35
-3.43
-3.45
-3.46
-3.55
-3.79
-4.23
-4.80
-5.33
-5.64
-5.59
-5.18
-4.58
-3.99
-3.65
-3.70
-4.13
-4.78
-5.42
-5.74
-5.44
-4.33
-2.40
0.11
2.78
5.12
6.73
7.45
7.38
6.81
6.05
5.29
4.56
3.79
2.94
2.09
1.42
1.09
1.13
1.40
1.56
1.35
0.66
-0.43
-1.65
-2.74
-3.58
-4.20
-4.76
-5.41
-6.23
-7.26
-8.44
-9.70
-10.96
-12.13
-13.13
-13.96
-14.75
-15.73
-17.21
-19.45
-22.52
-26.26
-30.26
-33.98
-36.85
-38.44
-38.56
-37.27
-34.81
-31.46
-27.48
-23.02
-18.11
-12.76
-7.00
-0.95
5.07
10.65
15.47
19.44
22.81
26.14
30.04
34.91
40.71
46.92
52.83
57.77
61.31
63.32
63.82
62.96
60.88
57.80
53.98
49.71
45.26
40.78
36.32
31.88
27.43
23.01
18.63
14.39
10.30
6.41
2.80
-0.36
-2.92
-4.77
-5.94
-6.68
-7.40
-8.58
-10.59
-13.53
-17.11
-20.76
-23.74
-25.44
-25.60
-24.34
-22.12
-19.50
-16.93
-14.57
-12.37
-10.22
-8.08
-6.03
-4.14
-2.31
-0.28
2.26
5.38
8.72
11.50
12.79
12.03
9.24
5.08
0.56
-3.42
-6.33
-8.12
-9.10
-9.65
-10.01
-10.22
-10.21
-9.86
-9.19
-8.35
-7.59
-7.20
-7.27
-7.78
-8.50
-9.15
-9.53
-9.62
-9.56
-9.58
-9.83
-10.32
-10.91
-11.39
-11.69
-11.87
-12.13
-12.65
-13.44
-14.28
-14.79
-14.65
-13.76
-12.34
-10.80
-9.55
-8.81
-8.54
-8.55
-8.58
-8.54
-8.41
-8.30
-8.25
-8.27
-8.25
-8.11
-7.85
-7.54
-7.37
-7.47
-7.80
-8.11
-8.03
-7.21
-5.54
-3.21
-0.64
1.73
3.60
4.91
5.83
6.56
7.25
7.86
8.26
8.33
8.07
7.60
7.12
6.86
6.93
7.34
8.01
8.72
9.26
9.39
8.94
7.90
6.42
4.83
3.61
3.18
3.78
5.36
7.57
9.88
11.77
12.88
13.10
12.56
11.56
10.40
9.36
8.65
8.33
8.35
8.53
8.67
8.53
7.96
6.92
5.51
3.91
2.32
0.90
-0.27
-1.17
-1.88
-2.54
-3.39
-4.68
-6.60
-9.17
-12.18
-15.13
-17.45
-18.66
-18.54
-17.23
-15.17
-12.84
-10.57
-8.43
-6.31
-4.04
-1.60
0.83
2.93
4.40
5.10
5.11
4.68
4.10
3.55
3.10
2.73
2.43
2.20
2.10
2.12
2.22
2.28
2.15
1.73
0.97
-0.05
-1.24
-2.49
-3.78
-5.11
-6.51
-7.89
-9.18
-10.34
-11.48
-12.86
-14.74
-17.17
-19.89
-22.29
-23.66
-23.43
-21.41
-17.81
-13.06
-7.67
-2.03
3.62
9.12
14.36
19.23
23.65
27.56
30.94
33.80
36.13
37.93
39.23
40.08
40.51
40.56
40.25
39.65
38.87
37.99
37.01
35.84
34.34
32.46
30.33
28.27
26.65
25.63
25.15
24.87
24.38
23.41
21.92
20.06
18.02
15.92
13.67
11.11
8.14
4.81
1.37
-1.90
-4.76
-7.13
-9.09
-10.87
-12.73
-14.79
-17.03
-19.21
-21.09
-22.46
-23.33
-23.87
-24.36
-25.04
-26.02
-27.22
-28.41
-29.35
-29.84
-29.87
-29.46
-28.63
-27.33
-25.43
-22.89
-19.84
-16.70
-13.96
-12.05
-11.02
-10.47
-9.73
-8.16
-5.56
-2.30
0.74
2.66
2.83
1.24
-1.61
-4.91
-7.97
-10.39
-12.14
-13.40
-14.33
-14.99
-15.24
-14.92
-14.00
-12.63
-11.12
-9.78
-8.82
-8.25
-7.93
-7.64
-7.24
-6.73
-6.25
-6.04
-6.21
-6.81
-7.67
-8.53
-9.13
-9.32
-9.12
-8.69
-8.26
-8.02
-8.06
-8.31
-8.61
-8.80
-8.78
-8.53
-8.12
-7.70
-7.35
-7.14
-7.03
-6.94
-6.71
-6.21
-5.30
-3.93
-2.13
-0.08
1.98
3.78
5.15
6.06
6.66
7.18
7.90
8.97
10.42
12.14
13.89
15.43
16.52
17.04
17.01
16.55
15.83
15.00
14.17
13.35
12.54
11.72
10.91
10.12
9.42
8.84
8.40
8.12
7.99
7.93
7.84
7.54
6.84
5.62
3.84
1.62
-0.79
-3.04
-4.79
-5.81
-6.03
-5.59
-4.74
-3.81
-3.12
-2.92
-3.30
-4.25
-5.58
-7.08
-8.53
-9.74
-10.62
-11.08
-11.09
-10.69
-10.03
-9.41
-9.19
-9.67
-10.89
-12.64
-14.45
-15.80
-16.32
-15.91
-14.73
-13.19
-11.72
-10.73
-10.43
-10.86
-11.85
-13.16
-14.55
-15.87
-17.14
-18.52
-20.16
-22.16
-24.45
-26.83
-29.09
-31.08
-32.82
-34.42
-36.09
-38.02
-40.32
-42.95
-45.74
-48.37
-50.42
-51.38
-50.67
-47.72
-42.07
-33.46
-21.90
-7.70
8.64
26.44
44.99
63.49
80.95
96.00
107.17
113.31
114.16
110.73
105.05
99.53
96.04
95.32
96.87
99.37
101.28
101.27
98.42
92.18
82.33
69.12
53.30
36.24
19.62
4.99
-6.59
-14.80
-19.94
-22.75
-24.07
-24.60
-24.83
-24.99
-25.19
-25.45
-25.74
-26.02
-26.25
-26.31
-26.17
-25.83
-25.32
-24.72
-24.07
-23.38
-22.61
-21.75
-20.75
-19.65
-18.45
-17.25
-16.10
-15.12
-14.36
-13.84
-13.49
-13.18
-12.82
-12.33
-11.74
-11.13
-10.62
-10.26
-10.07
-10.02
-10.04
-10.04
-9.94
-9.72
-9.42
-9.12
-8.97
-9.15
-9.83
-11.06
-12.74
-14.51
-15.88
-16.28
-15.37
-13.08
-9.71
-5.75
-1.75
1.81
4.67
6.74
8.08
8.80
9.05
9.04
8.93
8.84
8.83
8.87
8.88
8.81
8.62
8.36
8.11
7.97
7.94
7.95
7.89
7.64
7.16
6.55
5.94
5.46
5.14
4.84
4.36
3.58
2.49
1.27
0.13
-0.80
-1.56
-2.30
-3.20
-4.29
-5.48
-6.56
-7.40
-8.01
-8.53
-9.14
-9.95
-10.94
-12.03
-13.19
-14.45
-15.91
-17.53
-19.05
-20.05
-20.07
-18.81
-16.29
-12.81
-8.83
-4.80
-1.07
2.16
4.75
6.63
7.77
8.23
8.17
7.83
7.45
7.20
7.15
7.28
7.56
7.97
8.53
9.16
9.76
10.15
10.15
9.72
8.94
8.00
7.08
6.28
5.52
4.65
3.56
2.22
0.76
-0.61
-1.72
-2.56
-3.19
-3.76
-4.42
-5.19
-6.05
-6.86
-7.58
-8.18
-8.76
-9.44
-10.33
-11.50
-12.94
-14.70
-16.80
-19.27
-21.96
-24.50
-26.27
-26.53
-24.78
-20.92
-15.42
-9.13
-3.01
2.18
6.12
8.89
10.86
12.45
13.93
15.36
16.70
17.81
18.66
19.28
19.82
20.40
21.11
21.88
22.62
23.13
23.31
23.09
22.54
21.76
20.90
20.06
19.26
18.41
17.38
16.02
14.29
12.26
10.14
8.18
6.56
5.31
4.28
3.24
1.97
0.41
-1.39
-3.27
-5.12
-6.92
-8.72
-10.56
-12.45
-14.34
-16.22
-18.20
-20.47
-23.24
-26.47
-29.76
-32.35
-33.35
-32.04
-28.21
-22.23
-14.98
-7.53
-0.82
4.64
8.73
11.67
13.78
15.34
16.53
17.43
18.08
18.54
18.95
19.47
20.26
21.32
22.54
23.55
23.91
23.23
21.37
18.48
15.01
11.43
8.11
5.18
2.57
0.16
-2.14
-4.20
-5.84
-6.92
-7.42
-7.54
-7.61
-7.93
-8.64
-9.65
-10.70
-11.49
-11.82
-11.73
-11.45
-11.26
-11.37
-11.78
-12.30
-12.69
-12.78
-12.61
-12.39
-12.38
-12.79
-13.71
-15.05
-16.64
-18.17
-19.29
-19.54
-18.52
-15.97
-11.99
-7.04
-1.85
2.83
6.50
9.02
10.62
11.70
12.61
13.53
14.45
15.29
15.94
16.34
16.46
16.35
16.03
15.56
15.01
14.44
13.96
13.62
13.43
13.35
13.21
12.84
12.10
10.93
9.38
7.58
5.69
3.90
2.37
1.23
0.53
0.22
0.10
-0.07
-0.50
-1.21
-2.10
-2.96
-3.61
-4.08
-4.48
-5.01
-5.79
-6.80
-7.87
-8.85
-9.59
-10.09
-10.44
-10.78
-11.27
-12.05
-13.18
-14.59
-16.09
-17.28
-17.69
-16.90
-14.65
-11.01
-6.35
-1.23
3.69
7.87
11.00
12.99
14.00
14.31
14.20
13.88
13.43
12.85
12.15
11.40
10.74
10.36
10.38
10.77
11.34
11.85
12.12
12.04
11.64
10.89
9.76
8.26
6.40
4.31
2.16
0.12
-1.75
-3.47
-5.10
-6.64
-8.01
-9.08
-9.71
-9.91
-9.78
-9.54
-9.38
-9.43
-9.74
-10.24
-10.89
-11.59
-12.30
-13.01
-13.73
-14.48
-15.34
-16.42
-17.77
-19.31
-20.73
-21.44
-20.82
-18.41
-14.17
-8.56
-2.48
3.15
7.59
10.57
12.23
12.94
13.07
12.87
12.42
11.76
10.96
10.21
9.72
9.66
10.03
10.65
11.25
11.61
11.63
11.37
10.95
10.46
9.92
9.21
8.25
7.04
5.71
4.45
3.45
2.74
2.22
1.72
1.06
0.15
-0.97
-2.20
-3.43
-4.56
-5.55
-6.41
-7.14
-7.83
-8.60
-9.53
-10.66
-11.88
-13.00
-13.80
-14.24
-14.45
-14.76
-15.55
-17.06
-19.27
-21.80
-24.01
-25.10
-24.39
-21.49
-16.47
-9.94
-2.86
3.69
8.87
12.28
13.97
14.35
13.93
13.16
12.32
11.58
10.98
10.63
10.58
10.88
11.53
12.39
13.28
13.96
14.30
14.25
13.90
13.38
12.79
12.12
11.33
10.36
9.20
7.92
6.64
5.45
4.42
3.52
2.71
1.98
1.33
0.78
0.36
0.07
-0.14
-0.35
-0.65
-1.14
-1.87
-2.85
-4.05
-5.39
-6.82
-8.24
-9.58
-10.76
-11.75
-12.53
-13.18
-13.83
-14.65
-15.80
-17.38
-19.37
-21.58
-23.62
-24.88
-24.67
-22.46
-18.11
-12.00
-5.03
1.71
7.22
10.96
12.95
13.57
13.42
12.95
12.38
11.76
11.10
10.52
10.24
10.49
11.39
12.77
14.24
15.35
15.76
15.38
14.39
13.09
11.82
10.79
10.00
9.36
8.73
8.00
7.15
6.21
5.24
4.28
3.37
2.50
1.70
0.95
0.26
-0.42
-1.19
-2.13
-3.24
-4.46
-5.58
-6.39
-6.88
-7.15
-7.51
-8.26
-9.50
-11.03
-12.47
-13.40
-13.61
-13.24
-12.70
-12.45
-12.87
-14.12
-16.04
-18.31
-20.39
-21.64
-21.48
-19.47
-15.57
-10.18
-4.07
1.86
6.81
10.38
12.51
13.45
13.58
13.24
12.65
11.99
11.35
10.81
10.44
10.27
10.34
10.60
11.00
11.44
11.84
12.15
12.31
12.30
12.09
11.64
10.94
10.00
8.85
7.58
6.28
5.01
3.86
2.87
2.06
1.43
0.96
0.59
0.25
-0.11
-0.54
-1.06
-1.66
-2.30
-3.00
-3.75
-4.66
-5.81
-7.25
-8.91
-10.59
-11.99
-12.89
-13.22
-13.13
-12.94
-12.98
-13.48
-14.52
-16.02
-17.78
-19.53
-20.85
-21.17
-19.92
-16.77
-11.84
-5.76
0.45
5.76
9.48
11.47
12.06
11.84
11.36
10.97
10.76
10.69
10.65
10.62
10.59
10.58
10.57
10.55
10.47
10.31
10.11
9.92
9.83
9.92
10.17
10.51
10.72
10.60
10.03
9.00
7.67
6.23
4.88
3.70
2.70
1.80
0.94
0.06
-0.84
-1.75
-2.64
-3.46
-4.18
-4.76
-5.19
-5.48
-5.70
-5.94
-6.33
-6.93
-7.75
-8.74
-9.76
-10.72
-11.50
-12.09
-12.48
-12.79
-13.16
-13.81
-14.95
-16.63
-18.65
-20.45
-21.27
-20.39
-17.50
-12.89
-7.34
-1.84
2.78
6.11
8.16
9.23
9.65
9.69
9.49
9.15
8.77
8.49
8.43
8.64
9.07
9.57
9.95
10.06
9.88
9.49
9.08
8.81
8.74
8.78
8.73
8.35
7.51
6.26
4.81
3.38
2.15
1.14
0.28
-0.56
-1.45
-2.36
-3.20
-3.87
-4.39
-4.86
-5.37
-6.05
-6.89
-7.86
-8.88
-9.93
-10.93
-11.83
-12.58
-13.14
-13.60
-14.18
-15.11
-16.52
-18.31
-20.10
-21.31
-21.34
-19.72
-16.26
-11.18
-5.01
1.52
7.61
12.58
16.03
17.84
18.21
17.50
16.15
14.54
12.92
11.46
10.22
9.27
8.67
8.46
8.61
8.99
9.39
9.56
9.39
8.95
8.44
8.11
8.06
8.20
8.27
8.00
7.28
6.20
4.94
3.72
2.59
1.54
0.50
-0.54
-1.49
-2.26
-2.84
-3.32
-3.86
-4.60
-5.55
-6.65
-7.80
-8.93
-10.06
-11.25
-12.55
-14.03
-15.78
-17.84
-20.17
-22.50
-24.33
-25.01
-23.93
-20.84
-15.98
-10.06
-3.93
1.56
5.91
8.92
10.67
11.41
11.41
10.94
10.24
9.59
9.24
9.41
10.17
11.40
12.80
14.01
14.75
15.00
14.95
14.89
14.98
15.15
15.14
14.64
13.50
11.87
10.09
8.50
7.31
6.47
5.81
5.17
4.51
3.94
3.63
3.69
4.10
4.68
5.20
5.42
5.16
4.40
3.18
1.67
0.02
-1.57
-3.02
-4.30
-5.47
-6.63
-7.92
-9.43
-11.21
-13.26
-15.55
-17.90
-20.02
-21.45
-21.69
-20.34
-17.30
-12.87
-7.72
-2.68
1.51
4.45
6.14
6.90
7.21
7.47
7.87
8.38
8.84
9.14
9.33
9.58
10.08
10.93
12.00
12.97
13.55
13.54
13.00
12.10
11.07
10.05
9.08
8.14
7.28
6.56
6.05
5.75
5.55
5.35
5.04
4.58
4.00
3.34
2.64
1.92
1.22
0.62
0.20
-0.04
-0.26
-0.67
-1.53
-2.92
-4.68
-6.48
-8.02
-9.13
-9.95
-10.75
-11.88
-13.54
-15.74
-18.26
-20.73
-22.66
-23.58
-23.15
-21.29
-18.17
-14.25
-10.08
-6.10
-2.54
0.65
3.66
6.68
9.74
12.71
15.36
17.45
18.83
19.40
19.15
18.15
16.51
14.41
12.12
9.93
8.15
6.98
6.49
6.50
6.69
6.70
6.23
5.14
3.49
1.48
-0.59
-2.44
-3.84
-4.68
-4.98
-4.89
-4.64
-4.42
-4.28
-4.21
-4.12
-4.06
-4.15
-4.63
-5.69
-7.37
-9.45
-11.63
-13.50
-14.87
-15.74
-16.42
-17.39
-19.17
-22.06
-25.97
-30.35
-34.30
-36.84
-37.20
-35.06
-30.64
-24.54
-17.61
-10.70
-4.48
0.67
4.69
7.81
10.37
12.65
14.66
16.18
16.80
16.20
14.30
11.29
7.60
3.69
-0.01
-3.17
-5.56
-7.03
-7.56
-7.27
-6.45
-5.46
-4.62
-4.07
-3.75
-3.48
-3.03
-2.22
-1.01
0.57
2.37
4.17
5.73
6.76
7.05
6.51
5.19
3.31
1.18
-0.97
-2.91
-4.57
-5.89
-6.87
-7.50
-7.79
-7.78
-7.57
-7.31
-7.21
-7.54
-8.51
-10.18
-12.32
-14.38
-15.56
-15.04
-12.34
-7.48
-1.07
5.90
12.42
17.78
21.67
24.15
25.56
26.21
26.39
26.32
26.17
26.11
26.28
26.73
27.35
27.94
28.23
28.03
27.25
25.92
24.17
22.20
20.23
18.40
16.81
15.43
14.15
12.84
11.41
9.90
8.40
6.99
5.74
4.65
3.69
2.88
2.22
1.72
1.33
0.88
0.19
-0.83
-2.15
-3.56
-4.86
-5.91
-6.73
-7.42
-8.17
-9.08
-10.25
-11.64
-13.15
-14.63
-15.88
-16.76
-17.22
-17.38
-17.47
-17.83
-18.75
-20.35
-22.53
-24.89
-26.81
-27.56
-26.59
-23.65
-18.95
-13.14
-7.13
-1.80
2.28
4.92
6.32
6.85
6.92
6.81
6.70
6.72
6.94
7.47
8.32
9.43
10.63
11.69
12.40
12.67
12.53
12.17
11.78
11.52
11.39
11.28
11.00
10.43
9.54
8.44
7.28
6.21
5.30
4.57
3.96
3.44
2.99
2.60
2.23
1.81
1.26
0.53
-0.34
-1.22
-2.02
-2.65
-3.13
-3.60
-4.21
-5.12
-6.34
-7.77
-9.19
-10.39
-11.21
-11.60
-11.65
-11.59
-11.73
-12.43
-13.90
-16.13
-18.80
-21.30
-22.91
-23.05
-21.48
-18.32
-14.02
-9.15
-4.26
0.20
3.89
6.59
8.25
8.99
9.07
8.87
8.69
8.73
9.00
9.42
9.93
10.50
11.14
11.83
12.51
13.04
13.27
13.14
12.71
12.11
11.49
10.92
10.40
9.85
9.21
8.45
7.65
6.94
6.44
6.21
6.19
6.16
5.87
5.11
3.86
2.31
0.72
-0.62
-1.57
-2.16
-2.59
-3.11
-3.93
-5.18
-6.84
-8.80
-10.85
-12.72
-14.18
-15.11
-15.58
-15.91
-16.47
-17.61
-19.44
-21.71
-23.86
-25.14
-24.82
-22.49
-18.20
-12.51
-6.26
-0.35
4.57
8.21
10.56
11.88
12.38
12.29
11.78
11.06
10.34
9.83
9.66
9.83
10.25
10.81
11.38
11.90
12.30
12.52
12.49
12.23
11.74
11.09
10.34
9.51
8.60
7.58
6.41
5.08
3.66
2.24
0.96
-0.05
-0.79
-1.34
-1.91
-2.67
-3.73
-5.06
-6.49
-7.81
-8.91
-9.80
-10.56
-11.35
-12.28
-13.48
-15.04
-17.01
-19.40
-21.96
-24.21
-25.43
-24.92
-22.27
-17.51
-11.24
-4.42
1.91
6.96
10.31
11.99
12.33
11.86
11.03
10.21
9.60
9.25
9.18
9.37
9.81
10.45
11.19
11.88
12.41
12.68
12.72
12.60
12.39
12.11
11.63
10.79
9.45
7.60
5.43
3.25
1.39
0.03
-0.85
-1.49
-2.20
-3.24
-4.72
-6.54
-8.53
-10.45
-12.12
-13.45
-14.53
-15.59
-16.96
-18.91
-21.45
-24.19
-26.35
-27.00
-25.45
-21.58
-15.91
-9.45
-3.30
1.72
5.29
7.56
8.94
9.87
10.63
11.31
11.91
12.42
12.89
13.42
14.10
14.91
15.71
16.28
16.46
16.18
15.57
14.85
14.20
13.68
13.14
12.33
10.99
9.05
6.65
4.18
2.05
0.54
-0.32
-0.75
-1.09
-1.72
-2.85
-4.54
-6.63
-8.86
-10.90
-12.49
-13.54
-14.19
-14.77
-15.76
-17.54
-20.23
-23.50
-26.72
-28.98
-29.47
-27.66
-23.56
-17.69
-10.95
-4.38
1.19
5.30
7.94
9.39
10.05
10.32
10.47
10.68
11.01
11.46
12.01
12.60
13.20
13.80
14.41
14.98
15.45
15.73
15.78
15.64
15.40
15.08
14.60
13.75
12.35
10.34
7.88
5.31
3.01
1.18
-0.25
-1.54
-3.02
-4.89
-7.09
-9.36
-11.34
-12.78
-13.64
-14.15
-14.73
-15.84
-17.83
-20.79
-24.51
-28.46
-31.86
-33.83
-33.69
-31.11
-26.23
-19.70
-12.46
-5.50
0.41
4.84
7.80
9.64
10.79
11.65
12.45
13.25
14.00
14.64
15.17
15.60
15.98
16.30
16.50
16.53
16.36
15.98
15.39
14.60
13.63
12.51
11.32
10.11
8.81
7.34
5.54
3.30
0.69
-2.05
-4.54
-6.43
-7.61
-8.21
-8.63
-9.40
-11.00
-13.68
-17.36
-21.62
-25.72
-28.85
-30.24
-29.40
-26.28
-21.25
-15.05
-8.59
-2.69
2.09
5.55
7.83
9.30
10.42
11.53
12.76
14.05
15.19
16.02
16.53
16.86
17.15
17.50
17.79
17.78
17.29
16.29
15.01
13.73
12.64
11.69
10.61
9.07
6.90
4.19
1.28
-1.43
-3.62
-5.22
-6.37
-7.39
-8.59
-10.20
-12.34
-14.93
-17.75
-20.42
-22.46
-23.37
-22.71
-20.24
-16.05
-10.55
-4.39
1.71
7.15
11.60
14.94
17.26
18.71
19.42
19.51
19.08
18.28
17.33
16.46
15.86
15.57
15.51
15.53
15.46
15.27
15.00
14.71
14.45
14.10
13.40
12.13
10.16
7.67
5.06
2.83
1.34
0.62
0.31
-0.12
-1.13
-2.87
-5.15
-7.55
-9.66
-11.29
-12.50
-13.51
-14.57
-15.92
-17.78
-20.27
-23.43
-26.98
-30.26
-32.27
-32.04
-29.00
-23.28
-15.71
-7.48
0.23
6.67
11.60
15.19
17.74
19.53
20.71
21.38
21.68
21.82
22.03
22.42
22.98
23.55
23.93
23.98
23.69
23.14
22.44
21.66
20.80
19.80
18.58
17.14
15.55
13.85
12.10
10.33
8.57
6.84
5.21
3.73
2.35
0.99
-0.40
-1.83
-3.18
-4.31
-5.16
-5.77
-6.25
-6.72
-7.26
-7.86
-8.50
-9.20
-10.02
-11.05
-12.32
-13.76
-15.22
-16.56
-17.74
-18.82
-20.00
-21.46
-23.39
-25.88
-28.88
-32.08
-34.94
-36.68
-36.47
-33.74
-28.39
-20.96
-12.47
-4.21
2.75
7.80
10.95
12.68
13.66
14.45
15.31
16.25
17.15
17.93
18.58
19.17
19.77
20.30
20.64
20.66
20.32
19.75
19.12
18.61
18.21
17.82
17.21
16.22
14.82
13.16
11.45
9.90
8.62
7.62
6.79
5.99
5.11
4.10
3.02
1.96
0.99
0.12
-0.71
-1.62
-2.68
-3.90
-5.18
-6.37
-7.39
-8.30
-9.27
-10.46
-11.92
-13.57
-15.16
-16.51
-17.53
-18.29
-18.95
-19.75
-20.84
-22.35
-24.37
-26.84
-29.53
-31.93
-33.30
-32.89
-30.14
-25.03
-18.06
-10.23
-2.63
3.82
8.65
11.88
13.85
14.99
15.67
16.06
16.22
16.16
15.98
15.87
16.02
16.57
17.42
18.35
19.02
19.15
18.70
17.83
16.86
16.09
15.62
15.36
15.07
14.54
13.68
12.58
11.35
10.09
8.77
7.37
5.87
4.35
2.93
1.69
0.62
-0.38
-1.45
-2.66
-3.94
-5.15
-6.12
-6.78
-7.22
-7.64
-8.30
-9.39
-10.89
-12.60
-14.19
-15.36
-16.00
-16.23
-16.43
-16.99
-18.25
-20.28
-22.88
-25.53
-27.52
-28.06
-26.51
-22.64
-16.72
-9.52
-2.14
4.33
9.15
12.04
13.24
13.27
12.69
11.95
11.25
10.62
10.01
9.47
9.13
9.17
9.71
10.63
11.62
12.31
12.42
12.00
11.35
10.84
10.68
10.80
10.86
10.50
9.52
8.05
6.36
4.76
3.45
2.42
1.58
0.80
-0.00
-0.84
-1.69
-2.52
-3.31
-4.01
-4.65
-5.32
-6.16
-7.28
-8.72
-10.43
-12.23
-13.93
-15.40
-16.57
-17.50
-18.35
-19.32
-20.60
-22.25
-24.07
-25.53
-25.89
-24.41
-20.73
-15.02
-8.06
-0.97
5.15
9.57
12.15
13.20
13.27
12.88
12.33
11.70
10.99
10.26
9.69
9.51
9.85
10.64
11.60
12.35
12.66
12.52
12.11
11.69
11.43
11.30
11.12
10.65
9.70
8.24
6.39
4.40
2.54
1.07
0.05
-0.58
-1.02
-1.52
-2.19
-3.06
-3.99
-4.81
-5.42
-5.84
-6.22
-6.71
-7.41
-8.32
-9.39
-10.51
-11.57
-12.49
-13.23
-13.80
-14.30
-14.91
-15.90
-17.50
-19.80
-22.59
-25.28
-26.99
-26.81
-24.12
-18.94
-11.94
-4.32
2.65
7.98
11.29
12.79
13.04
12.70
12.23
11.88
11.67
11.56
11.57
11.75
12.19
12.92
13.81
14.66
15.24
15.36
15.05
14.42
13.68
12.94
12.20
11.34
10.23
8.82
7.22
5.65
4.28
3.24
2.49
1.94
1.53
1.20
0.95
0.71
0.41
-0.00
-0.49
-0.97
-1.29
-1.43
-1.47
-1.63
-2.18
-3.31
-5.04
-7.17
-9.42
-11.50
-13.23
-14.51
-15.40
-16.00
-16.52
-17.21
-18.34
-20.09
-22.46
-25.11
-27.34
-28.26
-27.05
-23.37
-17.51
-10.40
-3.29
2.73
7.01
9.54
10.76
11.32
11.76
12.35
13.06
13.69
14.08
14.12
13.90
13.57
13.29
13.18
13.24
13.40
13.59
13.75
13.86
13.91
13.86
13.63
13.11
12.24
11.00
9.51
7.90
6.32
4.91
3.72
2.77
2.01
1.40
0.91
0.51
0.16
-0.17
-0.53
-0.97
-1.52
-2.17
-2.94
-3.90
-5.11
-6.63
-8.45
-10.38
-12.16
-13.48
-14.18
-14.35
-14.33
-14.62
-15.67
-17.69
-20.56
-23.79
-26.61
-28.23
-27.97
-25.48
-20.84
-14.58
-7.56
-0.76
4.97
9.11
11.59
12.66
12.76
12.32
11.66
10.93
10.26
9.76
9.54
9.68
10.13
10.72
11.26
11.61
11.75
11.75
11.67
11.53
11.24
10.71
9.91
8.92
7.83
6.78
5.82
4.94
4.10
3.25
2.37
1.46
0.56
-0.27
-1.00
-1.56
-1.94
-2.23
-2.59
-3.20
-4.22
-5.66
-7.39
-9.16
-10.71
-11.84
-12.52
-12.92
-13.30
-13.95
-15.12
-16.82
-18.84
-20.68
-21.68
-21.21
-18.87
-14.68
-9.14
-3.06
2.64
7.22
10.32
11.94
12.39
12.09
11.35
10.39
9.29
8.13
7.05
6.28
6.06
6.51
7.50
8.70
9.64
10.02
9.80
9.24
8.73
8.56
8.75
9.03
9.07
8.60
7.54
6.03
4.30
2.59
1.11
-0.03
-0.81
-1.36
-1.88
-2.59
-3.62
-4.95
-6.41
-7.78
-8.93
-9.86
-10.71
-11.68
-12.92
-14.50
-16.42
-18.60
-20.85
-22.81
-23.97
-23.76
-21.76
-17.94
-12.66
-6.73
-1.06
3.53
6.65
8.36
9.07
9.30
9.47
9.70
9.91
9.94
9.72
9.36
9.08
9.03
9.28
9.74
10.23
10.65
10.98
11.28
11.55
11.77
11.75
11.33
10.43
9.06
7.35
5.50
3.68
2.07
0.77
-0.22
-0.98
-1.76
-2.76
-4.10
-5.74
-7.48
-9.06
-10.27
-11.06
-11.50
-11.78
-12.13
-12.73
-13.71
-15.16
-17.10
-19.47
-22.00
-24.19
-25.34
-24.75
-22.01
-17.22
-11.09
-4.66
1.02
5.30
8.09
9.75
10.78
11.56
12.22
12.68
12.87
12.80
12.63
12.52
12.56
12.71
12.86
12.90
12.83
12.71
12.63
12.65
12.72
12.73
12.56
12.15
11.51
10.71
9.78
8.74
7.58
6.32
5.09
4.01
3.20
2.62
2.10
1.44
0.52
-0.60
-1.71
-2.57
-3.12
-3.49
-4.01
-5.01
-6.61
-8.64
-10.73
-12.47
-13.60
-14.18
-14.51
-15.05
-16.14
-17.96
-20.41
-23.16
-25.71
-27.47
-27.88
-26.54
-23.33
-18.51
-12.65
-6.51
-0.83
3.83
7.26
9.49
10.82
11.56
12.00
12.35
12.73
13.15
13.63
14.10
14.51
14.85
15.14
15.40
15.67
15.94
16.14
16.16
15.93
15.42
14.68
13.82
12.93
12.03
11.08
10.06
8.98
7.92
6.99
6.25
5.63
4.97
4.10
2.96
1.63
0.31
-0.77
-1.49
-1.88
-2.10
-2.39
-2.96
-3.99
-5.54
-7.57
-9.89
-12.22
-14.24
-15.72
-16.62
-17.16
-17.69
-18.65
-20.31
-22.71
-25.53
-28.17
-29.92
-30.10
-28.33
-24.57
-19.21
-12.92
-6.44
-0.50
4.40
8.03
10.45
11.92
12.84
13.53
14.19
14.84
15.41
15.81
16.02
16.10
16.12
16.15
16.16
16.14
16.09
16.03
15.99
15.93
15.76
15.36
14.63
13.55
12.16
10.59
9.01
7.58
6.45
5.65
5.11
4.64
4.01
3.07
1.79
0.33
-1.09
-2.27
-3.20
-4.04
-5.02
-6.34
-7.97
-9.70
-11.24
-12.42
-13.22
-13.84
-14.53
-15.52
-16.88
-18.58
-20.57
-22.69
-24.72
-26.20
-26.51
-25.04
-21.43
-15.87
-9.06
-2.05
4.23
9.24
12.94
15.64
17.70
19.24
20.16
20.30
19.63
18.39
16.99
15.86
15.22
15.04
15.11
15.21
15.13
14.80
14.17
13.26
12.12
10.84
9.58
8.47
7.53
6.74
6.00
5.23
4.42
3.63
2.92
2.28
1.69
1.05
0.33
-0.45
-1.22
-1.88
-2.41
-2.92
-3.61
-4.70
-6.28
-8.18
-10.08
-11.61
-12.59
-13.11
-13.50
-14.20
-15.47
-17.38
-19.82
-22.59
-25.47
-28.18
-30.30
-31.19
-30.18
-26.87
-21.36
-14.37
-7.00
-0.36
4.79
8.25
10.32
11.49
12.25
12.85
13.39
13.98
14.78
16.01
17.82
20.19
22.80
25.20
26.92
27.70
27.52
26.60
25.23
23.71
22.22
20.79
19.37
17.86
16.16
14.19
11.97
9.53
6.91
4.21
1.49
-1.12
-3.52
-5.63
-7.49
-9.25
-11.14
-13.37
-15.94
-18.60
-20.91
-22.42
-22.89
-22.40
-21.34
-20.21
-19.42
-19.09
-19.15
-19.39
-19.60
-19.65
-19.46
-18.93
-17.96
-16.52
-14.68
-12.68
-10.76
-8.98
-7.19
-4.99
-2.07
1.63
5.72
9.54
12.45
14.11
14.63
14.46
14.12
13.95
14.06
14.34
14.69
15.03
15.40
15.84
16.35
16.86
17.31
17.64
17.85
17.97
18.02
17.96
17.71
17.19
16.31
15.06
13.53
11.89
10.36
9.09
8.10
7.29
6.53
5.73
4.93
4.21
3.65
3.20
2.66
1.82
0.56
-1.01
-2.64
-4.03
-5.02
-5.63
-6.08
-6.60
-7.33
-8.25
-9.19
-9.98
-10.54
-10.94
-11.32
-11.86
-12.62
-13.57
-14.62
-15.66
-16.70
-17.76
-18.78
-19.56
-19.71
-18.84
-16.71
-13.39
-9.32
-5.11
-1.33
1.65
3.78
5.16
5.98
6.39
6.49
6.36
6.15
6.06
6.25
6.82
7.71
8.79
9.82
10.60
10.96
10.89
10.47
9.88
9.31
8.87
8.55
8.22
7.67
6.80
5.63
4.25
2.81
1.41
0.14
-0.99
-1.93
-2.66
-3.22
-3.68
-4.15
-4.73
-5.46
-6.29
-7.11
-7.82
-8.42
-8.93
-9.48
-10.15
-11.02
-12.09
-13.25
-14.40
-15.37
-16.03
-16.36
-16.51
-16.75
-17.43
-18.80
-20.83
-23.12
-24.99
-25.70
-24.67
-21.75
-17.23
-11.78
-6.20
-1.20
2.75
5.51
7.15
7.95
8.20
8.18
8.10
8.08
8.19
8.47
8.94
9.60
10.41
11.28
12.13
12.88
13.51
14.01
14.36
14.50
14.35
13.85
13.02
12.00
10.93
9.93
8.99
7.98
6.80
5.45
4.06
2.86
1.98
1.39
0.91
0.30
-0.60
-1.79
-3.17
-4.56
-5.87
-7.06
-8.13
-9.06
-9.89
-10.68
-11.60
-12.88
-14.70
-17.13
-20.01
-22.97
-25.41
-26.67
-26.16
-23.54
-18.95
-12.94
-6.41
-0.36
4.49
7.80
9.68
10.56
10.94
11.17
11.42
11.68
11.86
11.89
11.77
11.54
11.32
11.20
11.28
11.59
12.13
12.82
13.55
14.17
14.55
14.59
14.19
13.34
12.11
10.67
9.23
7.98
7.02
6.27
5.58
4.75
3.66
2.29
0.79
-0.68
-1.98
-3.09
-4.16
-5.37
-6.87
-8.65
-10.58
-12.38
-13.82
-14.77
-15.33
-15.79
-16.50
-17.80
-19.84
-22.57
-25.68
-28.58
-30.51
-30.72
-28.71
-24.41
-18.25
-11.06
-3.86
2.44
7.28
10.52
12.38
13.33
13.84
14.23
14.58
14.87
15.00
14.95
14.81
14.69
14.67
14.70
14.65
14.43
14.03
13.56
13.14
12.82
12.53
12.09
11.33
10.18
8.71
7.11
5.60
4.32
3.37
2.70
2.20
1.72
1.10
0.28
-0.72
-1.78
-2.74
-3.50
-4.04
-4.45
-4.87
-5.46
-6.30
-7.39
-8.65
-9.96
-11.23
-12.41
-13.50
-14.51
-15.55
-16.75
-18.31
-20.39
-23.00
-25.84
-28.31
-29.58
-28.87
-25.80
-20.61
-14.06
-7.22
-1.03
3.92
7.52
9.96
11.55
12.57
13.13
13.35
13.35
13.32
13.48
13.97
14.79
15.79
16.73
17.32
17.41
16.99
16.25
15.44
14.82
14.53
14.55
14.71
14.80
14.66
14.19
13.42
12.44
11.38
10.33
9.34
8.39
7.42
6.35
5.18
3.95
2.79
1.80
1.03
0.42
-0.18
-0.95
-2.02
-3.42
-5.10
-6.95
-8.82
-10.60
-12.17
-13.49
-14.60
-15.67
-16.98
-18.85
-21.51
-24.91
-28.61
-31.80
-33.52
-32.95
-29.75
-24.17
-17.00
-9.36
-2.34
3.25
7.12
9.38
10.51
11.03
11.39
11.81
12.29
12.73
13.05
13.24
13.45
13.83
14.50
15.40
16.36
17.15
17.61
17.67
17.38
16.83
16.12
15.26
14.26
13.06
11.70
10.26
8.88
7.68
6.76
6.10
5.63
5.16
4.58
3.78
2.83
1.85
1.02
0.44
0.06
-0.34
-1.06
-2.41
-4.47
-7.13
-10.03
-12.73
-14.83
-16.16
-16.80
-17.03
-17.25
-17.93
-19.41
-21.85
-25.09
-28.61
-31.47
-32.63
-31.22
-26.97
-20.32
-12.35
-4.43
2.29
7.17
10.18
11.74
12.40
12.66
12.77
12.78
12.70
12.53
12.34
12.24
12.34
12.73
13.42
14.31
15.25
16.06
16.58
16.72
16.49
15.88
14.89
13.59
12.02
10.33
8.66
7.17
5.90
4.79
3.73
2.64
1.50
0.42
-0.52
-1.33
-2.16
-3.23
-4.67
-6.51
-8.56
-10.59
-12.41
-13.95
-15.30
-16.60
-18.04
-19.77
-21.89
-24.39
-27.13
-29.71
-31.48
-31.67
-29.68
-25.33
-18.99
-11.56
-4.12
2.35
7.30
10.64
12.68
13.85
14.55
15.01
15.29
15.41
15.40
15.34
15.32
15.44
15.75
16.25
16.87
17.54
18.14
18.61
18.87
18.84
18.44
17.57
16.19
14.30
12.07
9.73
7.54
5.67
4.17
2.94
1.81
0.72
-0.34
-1.30
-2.15
-3.07
-4.30
-6.07
-8.39
-11.04
-13.66
-15.87
-17.51
-18.64
-19.47
-20.34
-21.51
-23.25
-25.72
-28.92
-32.60
-36.13
-38.55
-38.79
-36.12
-30.42
-22.38
-13.24
-4.42
2.97
8.39
11.88
13.92
15.10
15.91
16.65
17.43
18.28
19.16
20.05
20.90
21.69
22.36
22.86
23.11
23.06
22.69
22.07
21.38
20.82
20.52
20.45
20.32
19.79
18.51
16.41
13.72
10.93
8.57
6.99
6.19
5.85
5.56
4.97
3.98
2.72
1.43
0.25
-0.81
-1.83
-2.93
-4.19
-5.62
-7.26
-9.12
-11.17
-13.32
-15.36
-17.07
-18.31
-19.19
-20.02
-21.26
-23.30
-26.28
-29.95
-33.68
-36.48
-37.31
-35.33
-30.22
-22.37
-12.85
-3.09
5.55
12.26
16.86
19.76
21.57
22.82
23.74
24.36
24.60
24.48
24.09
23.61
23.15
22.70
22.15
21.37
20.26
18.84
17.13
15.18
13.01
10.60
7.93
5.07
2.15
-0.62
-2.98
-4.76
-5.88
-6.42
-6.52
-6.37
-6.14
-5.95
-5.89
-5.98
-6.17
-6.35
-6.27
-5.67
-4.37
-2.39
-0.05
2.13
3.59
4.00
3.29
1.68
-0.48
-2.94
-5.59
-8.50
-11.79
-15.50
-19.57
-23.84
-28.13
-32.22
-35.73
-38.10
-38.67
-36.87
-32.55
-26.10
-18.42
-10.67
-3.82
1.54
5.40
8.12
10.23
12.11
13.95
15.71
17.35
18.84
20.23
21.64
23.06
24.43
25.54
26.18
26.23
25.75
24.97
24.18
23.62
23.34
23.15
22.70
21.64
19.78
17.15
14.01
10.77
7.78
5.22
3.07
1.16
-0.69
-2.52
-4.22
-5.66
-6.78
-7.67
-8.61
-9.85
-11.54
-13.54
-15.56
-17.28
-18.51
-19.32
-19.96
-20.80
-22.13
-24.10
-26.59
-29.23
-31.41
-32.36
-31.40
-28.13
-22.67
-15.69
-8.24
-1.44
3.91
7.47
9.43
10.31
10.60
10.66
10.58
10.37
10.03
9.72
9.68
10.13
11.14
12.58
14.19
15.64
16.69
17.24
17.29
16.90
16.15
15.10
13.83
12.42
10.95
9.46
7.96
6.42
4.82
3.20
1.68
0.35
-0.70
-1.50
-2.15
-2.83
-3.70
-4.89
-6.38
-8.11
-9.93
-11.71
-13.33
-14.80
-16.19
-17.68
-19.48
-21.80
-24.70
-27.95
-30.96
-32.88
-32.80
-30.13
-24.84
-17.57
-9.41
-1.57
5.00
9.82
12.85
14.39
14.84
14.55
13.81
12.88
12.00
11.41
11.30
11.73
12.61
13.75
14.88
15.78
16.29
16.38
16.16
15.74
15.30
14.90
14.53
14.09
13.44
12.46
11.08
9.38
7.49
5.61
3.90
2.47
1.33
0.40
-0.47
-1.45
-2.63
-4.03
-5.58
-7.16
-8.73
-10.26
-11.84
-13.53
-15.36
-17.35
-19.57
-22.14
-25.16
-28.57
-31.97
-34.56
-35.36
-33.60
-29.09
-22.35
-14.47
-6.69
-0.00
5.17
8.86
11.40
13.12
14.23
14.74
14.71
14.34
13.91
13.76
14.03
14.73
15.63
16.46
17.06
17.39
17.49
17.45
17.28
16.92
16.31
15.45
14.36
13.13
11.79
10.35
8.80
7.20
5.64
4.24
3.03
1.98
1.01
0.07
-0.85
-1.74
-2.63
-3.62
-4.81
-6.24
-7.86
-9.51
-11.09
-12.57
-14.00
-15.54
-17.36
-19.60
-22.38
-25.62
-29.01
-31.86
-33.29
-32.49
-29.05
-23.26
-16.01
-8.46
-1.72
3.55
7.23
9.59
11.06
12.02
12.69
13.17
13.46
13.61
13.69
13.81
14.05
14.41
14.82
15.12
15.16
14.93
14.52
14.14
13.95
13.96
13.97
13.67
12.82
11.37
9.47
7.45
5.61
4.20
3.24
2.65
2.18
1.58
0.59
-0.89
-2.83
-5.03
-7.22
-9.13
-10.62
-11.69
-12.51
-13.34
-14.54
-16.44
-19.23
-22.76
-26.53
-29.58
-30.88
-29.62
-25.60
-19.40
-12.13
-5.04
0.90
5.30
8.28
10.21
11.44
12.12
12.23
11.74
10.77
9.62
8.72
8.37
8.69
9.56
10.68
11.72
12.45
12.80
12.85
12.74
12.56
12.26
11.69
10.65
9.03
6.92
4.57
2.29
0.35
-1.17
-2.31
-3.22
-4.03
-4.80
-5.56
-6.28
-7.00
-7.81
-8.86
-10.34
-12.40
-15.13
-18.50
-22.31
-26.24
-29.78
-32.37
-33.46
-32.63
-29.72
-24.89
-18.68
-11.87
-5.25
0.54
5.19
8.72
11.35
13.34
14.83
15.87
16.43
16.56
16.42
16.29
16.42
16.95
17.83
18.81
19.57
19.89
19.68
19.04
18.14
17.18
16.24
15.31
14.26
12.90
11.14
8.98
6.58
4.18
2.03
0.24
-1.21
-2.48
-3.80
-5.34
-7.19
-9.31
-11.59
-13.87
-16.00
-17.85
-19.39
-20.71
-22.08
-23.84
-26.34
-29.69
-33.63
-37.51
-40.37
-41.25
-39.47
-34.82
-27.71
-18.96
-9.65
-0.84
6.67
12.40
16.28
18.59
19.83
20.54
21.18
22.00
23.04
24.17
25.24
26.10
26.67
26.95
26.96
26.77
26.41
25.89
25.18
24.21
22.91
21.29
19.41
17.40
15.43
13.56
11.83
10.21
8.64
7.11
5.60
4.10
2.56
0.95
-0.74
-2.44
-4.02
-5.47
-6.84
-8.28
-9.95
-11.93
-14.12
-16.31
-18.23
-19.74
-20.88
-21.89
-23.14
-25.02
-27.77
-31.32
-35.23
-38.66
-40.61
-40.13
-36.69
-30.38
-21.93
-12.53
-3.47
4.19
9.93
13.77
16.13
17.61
18.74
19.82
20.90
21.91
22.74
23.37
23.87
24.30
24.70
25.00
25.17
25.14
24.96
24.68
24.39
24.10
23.73
23.12
22.08
20.51
18.46
16.09
13.69
11.53
9.78
8.42
7.30
6.18
4.88
3.30
1.49
-0.42
-2.30
-4.02
-5.48
-6.72
-7.90
-9.23
-10.94
-13.06
-15.44
-17.71
-19.51
-20.61
-21.10
-21.35
-21.88
-23.19
-25.53
-28.80
-32.58
-36.14
-38.59
-39.03
-36.76
-31.57
-23.86
-14.67
-5.34
2.82
8.94
12.79
14.71
15.37
15.43
15.34
15.25
15.14
15.01
14.93
15.08
15.63
16.60
17.83
19.04
19.91
20.25
20.05
19.49
18.76
17.99
17.17
16.13
14.72
12.94
10.91
8.90
7.19
5.93
5.08
4.44
3.74
2.81
1.56
0.08
-1.57
-3.27
-5.01
-6.79
-8.61
-10.43
-12.20
-13.88
-15.41
-16.84
-18.23
-19.74
-21.59
-24.05
-27.29
-31.21
-35.34
-38.79
-40.51
-39.55
-35.50
-28.66
-19.93
-10.57
-1.79
5.53
11.05
14.83
17.22
18.64
19.47
19.94
20.19
20.29
20.26
20.18
20.12
20.18
20.40
20.73
21.08
21.34
21.45
21.38
21.16
20.74
20.03
18.96
17.44
15.53
13.39
11.23
9.25
7.54
6.08
4.68
3.19
1.47
-0.47
-2.49
-4.36
-5.91
-7.06
-7.90
-8.65
-9.53
-10.68
-12.14
-13.81
-15.56
-17.24
-18.79
-20.22
-21.67
-23.38
-25.61
-28.53
-32.02
-35.62
-38.51
-39.69
-38.30
-33.91
-26.73
-17.67
-8.00
0.93
8.11
13.12
16.11
17.64
18.33
18.68
18.91
19.04
19.04
18.88
18.64
18.45
18.40
18.51
18.71
18.91
19.04
19.08
19.03
18.86
18.49
17.77
16.58
14.86
12.72
10.37
8.07
5.98
4.20
2.72
1.50
0.54
-0.21
-0.81
-1.40
-2.11
-3.11
-4.42
-6.02
-7.78
-9.59
-11.31
-12.89
-14.26
-15.39
-16.35
-17.29
-18.48
-20.24
-22.79
-26.02
-29.46
-32.20
-33.26
-31.85
-27.70
-21.23
-13.41
-5.45
1.60
7.11
10.91
13.22
14.38
14.76
14.59
14.07
13.40
12.76
12.36
12.36
12.84
13.76
15.00
16.32
17.50
18.29
18.47
17.96
16.77
15.06
13.01
10.85
8.68
6.58
4.54
2.58
0.79
-0.74
-1.95
-2.85
-3.57
-4.28
-5.09
-6.09
-7.25
-8.57
-10.04
-11.63
-13.27
-14.73
-15.83
-16.47
-16.82
-17.25
-18.27
-20.20
-23.05
-26.38
-29.44
-31.34
-31.38
-29.20
-24.91
-19.06
-12.51
-6.19
-0.86
3.08
5.67
7.26
8.32
9.21
10.17
11.22
12.36
13.61
15.02
16.67
18.58
20.71
22.93
25.08
27.01
28.53
29.44
29.55
28.78
27.17
24.95
22.38
19.76
17.24
14.91
12.73
10.58
8.31
5.67
2.39
-1.78
-6.92
-12.82
-18.94
-24.55
-28.89
-31.47
-32.22
-31.44
-29.71
-27.62
-25.68
-24.16
-23.09
-22.28
-21.32
-19.68
-16.87
-12.63
-7.09
-0.83
5.30
10.47
14.17
16.31
17.17
17.15
16.60
15.72
14.66
13.61
12.79
12.42
12.61
13.27
14.14
14.89
15.22
14.98
14.17
12.93
11.45
9.92
8.47
7.16
5.96
4.85
3.78
2.70
1.63
0.56
-0.47
-1.39
-2.17
-2.80
-3.36
-4.01
-4.92
-6.21
-7.85
-9.72
-11.56
-13.19
-14.50
-15.52
-16.42
-17.44
-18.86
-20.91
-23.68
-27.00
-30.33
-32.93
-33.95
-32.80
-29.34
-24.00
-17.58
-10.99
-4.99
0.01
3.91
6.84
8.94
10.37
11.25
11.74
12.03
12.29
12.61
13.02
13.47
13.90
14.27
14.54
14.69
14.70
14.60
14.43
14.26
14.11
13.97
13.71
13.19
12.30
11.07
9.62
8.09
6.59
5.16
3.76
2.37
1.01
-0.26
-1.40
-2.46
-3.56
-4.83
-6.30
-7.85
-9.27
-10.37
-11.15
-11.86
-12.93
-14.87
-17.95
-22.03
-26.50
-30.36
-32.56
-32.28
-29.23
-23.70
-16.50
-8.64
-1.16
5.18
9.95
13.09
14.82
15.53
15.64
15.46
15.19
14.90
14.66
14.57
14.75
15.34
16.29
17.44
18.49
19.14
19.19
18.62
17.57
16.28
14.98
13.80
12.74
11.63
10.26
8.50
6.41
4.25
2.37
0.98
0.06
-0.68
-1.64
-3.12
-5.12
-7.37
-9.44
-11.03
-12.07
-12.75
-13.45
-14.51
-16.13
-18.32
-20.92
-23.69
-26.25
-28.13
-28.80
-27.73
-24.65
-19.68
-13.37
-6.58
-0.19
5.11
9.01
11.56
13.03
13.71
13.80
13.45
12.77
11.98
11.29
10.90
10.89
11.21
11.72
12.28
12.83
13.38
13.97
14.52
14.84
14.72
13.96
12.51
10.44
7.99
5.48
3.18
1.35
-0.03
-1.14
-2.36
-4.10
-6.54
-9.56
-12.76
-15.61
-17.76
-19.17
-20.14
-21.15
-22.62
-24.84
-27.86
-31.47
-35.23
-38.42
-40.12
-39.41
-35.68
-28.96
-20.02
-10.19
-0.95
6.57
11.90
15.19
16.99
17.91
18.35
18.46
18.27
17.86
17.45
17.33
17.71
18.59
19.75
20.81
21.48
21.61
21.30
20.80
20.33
20.01
19.75
19.30
18.37
16.76
14.45
11.66
8.72
5.98
3.66
1.77
0.10
-1.59
-3.55
-5.84
-8.38
-10.98
-13.41
-15.52
-17.32
-18.92
-20.58
-22.57
-25.19
-28.55
-32.57
-36.88
-40.77
-43.29
-43.54
-40.81
-34.94
-26.44
-16.38
-6.18
2.84
9.84
14.60
17.48
19.12
20.10
20.82
21.41
21.89
22.34
22.88
23.62
24.57
25.57
26.37
26.70
26.50
25.87
25.07
24.34
23.78
23.32
22.72
21.72
20.16
18.08
15.69
13.26
11.02
9.07
7.31
5.60
3.86
2.13
0.55
-0.73
-1.73
-2.63
-3.79
-5.54
-8.02
-11.09
-14.39
-17.54
-20.25
-22.45
-24.28
-25.98
-27.80
-29.95
-32.57
-35.67
-38.97
-41.88
-43.51
-42.89
-39.35
-32.84
-24.08
-14.35
-5.11
2.55
8.14
11.80
14.06
15.52
16.60
17.45
18.16
18.79
19.52
20.53
21.95
23.68
25.44
26.84
27.54
27.39
26.49
25.12
23.65
22.33
21.25
20.31
19.32
18.12
16.66
15.01
13.35
11.79
10.35
8.95
7.46
5.84
4.13
2.47
1.01
-0.18
-1.09
-1.84
-2.54
-3.40
-4.58
-6.18
-8.24
-10.65
-13.16
-15.50
-17.47
-19.00
-20.21
-21.38
-22.81
-24.73
-27.22
-30.16
-33.16
-35.61
-36.74
-35.84
-32.49
-26.77
-19.30
-11.10
-3.27
3.31
8.23
11.53
13.54
14.63
15.08
15.03
14.61
14.07
13.77
14.04
15.02
16.53
18.12
19.32
19.80
19.57
18.88
18.06
17.33
16.75
16.20
15.55
14.68
13.58
12.32
11.05
9.88
8.87
7.99
7.10
6.02
4.62
2.88
0.96
-0.93
-2.58
-3.92
-5.03
-6.13
-7.47
-9.17
-11.19
-13.33
-15.27
-16.80
-17.84
-18.57
-19.35
-20.56
-22.50
-25.19
-28.37
-31.49
-33.83
-34.63
-33.33
-29.66
-23.80
-16.36
-8.27
-0.54
5.99
10.83
13.89
15.41
15.88
15.84
15.74
15.84
16.22
16.82
17.53
18.23
18.87
19.40
19.81
20.13
20.39
20.64
20.88
21.05
21.03
20.62
19.63
17.96
15.64
12.85
9.88
7.07
4.70
2.88
1.56
0.59
-0.23
-1.05
-1.94
-2.91
-3.99
-5.25
-6.75
-8.47
-10.26
-11.91
-13.26
-14.31
-15.23
-16.38
-18.08
-20.55
-23.78
-27.52
-31.27
-34.35
-35.96
-35.34
-32.06
-26.22
-18.49
-10.01
-1.99
4.64
9.48
12.65
14.60
15.82
16.61
17.08
17.21
17.04
16.67
16.28
16.03
15.95
15.99
16.03
15.94
15.62
15.11
14.44
13.74
13.09
12.50
11.91
11.21
10.24
8.94
7.41
5.89
4.66
3.90
3.54
3.33
2.98
2.33
1.45
0.59
0.00
-0.22
-0.24
-0.33
-0.71
-1.46
-2.45
-3.46
-4.31
-4.97
-5.47
-5.95
-6.53
-7.36
-8.55
-10.25
-12.53
-15.34
-18.39
-21.09
-22.70
-22.48
-20.02
-15.41
-9.29
-2.72
3.24
7.81
10.71
12.16
12.63
12.57
12.31
12.01
11.72
11.51
11.50
11.78
12.38
13.21
14.05
14.65
14.85
14.61
14.00
13.15
12.14
10.99
9.60
7.93
5.96
3.79
1.60
-0.42
-2.15
-3.58
-4.85
-6.12
-7.52
-9.07
-10.64
-12.05
-13.11
-13.77
-14.18
-14.63
-15.48
-17.00
-19.28
-22.16
-25.25
-27.89
-29.39
-29.11
-26.78
-22.66
-17.51
-12.47
-8.59
-6.53
-6.31
-7.38
-8.96
-10.24
-10.67
-9.93
-7.91
-4.59
-0.10
5.22
10.84
16.10
20.45
23.57
25.40
26.15
26.09
25.50
24.59
23.57
22.57
21.64
20.75
19.83
18.84
17.79
16.82
16.01
15.39
14.86
14.28
13.50
12.51
11.37
10.14
8.87
7.51
5.99
4.30
2.50
0.69
-1.01
-2.53
-3.86
-4.95
-5.75
-6.25
-6.51
-6.70
-7.05
-7.75
-8.85
-10.26
-11.76
-13.16
-14.32
-15.22
-15.91
-16.50
-17.10
-17.85
-18.92
-20.50
-22.69
-25.30
-27.82
-29.43
-29.31
-26.96
-22.42
-16.36
-9.80
-3.73
1.16
4.67
7.00
8.49
9.42
9.88
9.92
9.58
9.01
8.46
8.13
8.11
8.34
8.66
8.94
9.09
9.14
9.18
9.31
9.53
9.77
9.89
9.71
9.05
7.84
6.11
4.07
1.97
0.07
-1.51
-2.80
-3.98
-5.30
-6.94
-8.88
-10.98
-12.95
-14.50
-15.48
-15.96
-16.27
-16.92
-18.37
-20.91
-24.46
-28.53
-32.27
-34.67
-34.84
-32.25
-26.96
-19.56
-11.08
-2.68
4.65
10.30
14.09
16.23
17.14
17.27
17.00
16.55
16.02
15.52
15.14
15.01
15.22
15.71
16.33
16.80
16.85
16.41
15.61
14.64
13.71
12.87
11.96
10.78
9.21
7.31
5.30
3.45
1.93
0.71
-0.45
-1.84
-3.65
-5.89
-8.36
-10.75
-12.75
-14.23
-15.29
-16.21
-17.38
-19.13
-21.62
-24.74
-28.08
-31.02
-32.79
-32.73
-30.48
-26.07
-19.95
-12.86
-5.58
1.19
6.96
11.46
14.61
16.52
17.42
17.63
17.46
17.23
17.12
17.22
17.56
18.07
18.65
19.12
19.28
18.93
18.00
16.64
15.11
13.71
12.64
11.88
11.21
10.35
9.08
7.38
5.35
3.20
1.07
-0.98
-2.99
-5.06
-7.27
-9.64
-12.11
-14.57
-16.83
-18.74
-20.17
-21.14
-21.81
-22.51
-23.62
-25.45
-28.01
-30.93
-33.51
-34.88
-34.25
-31.21
-25.87
-18.88
-11.15
-3.68
2.83
8.03
11.92
14.72
16.65
17.86
18.47
18.60
18.49
18.46
18.75
19.47
20.48
21.50
22.24
22.56
22.57
22.44
22.36
22.39
22.41
22.20
21.55
20.33
18.62
16.58
14.44
12.42
10.65
9.12
7.76
6.36
4.78
2.95
1.00
-0.89
-2.51
-3.83
-4.97
-6.21
-7.83
-10.00
-12.66
-15.56
-18.36
-20.79
-22.77
-24.42
-26.07
-28.11
-30.85
-34.37
-38.38
-42.13
-44.56
-44.58
-41.43
-35.09
-26.30
-16.42
-6.94
0.98
6.80
10.67
13.09
14.68
15.86
16.79
17.49
18.00
18.48
19.17
20.30
21.87
23.64
25.23
26.24
26.50
26.16
25.58
25.16
25.07
25.13
24.97
24.17
22.53
20.16
17.46
14.91
12.89
11.49
10.48
9.45
8.00
5.92
3.38
0.75
-1.48
-3.05
-4.04
-4.88
-6.10
-8.11
-10.94
-14.26
-17.55
-20.29
-22.24
-23.44
-24.19
-24.98
-26.31
-28.60
-31.99
-36.20
-40.49
-43.70
-44.53
-41.99
-35.78
-26.52
-15.58
-4.66
4.75
11.84
16.54
19.39
21.12
22.33
23.37
24.31
25.13
25.82
26.46
27.16
27.95
28.76
29.40
29.67
29.48
28.87
28.05
27.23
26.54
25.89
25.04
23.72
21.78
19.31
16.59
13.98
11.75
9.98
8.61
7.44
6.27
4.96
3.45
1.80
0.15
-1.29
-2.39
-3.10
-3.59
-4.16
-5.13
-6.68
-8.80
-11.20
-13.50
-15.37
-16.70
-17.58
-18.35
-19.40
-21.13
-23.67
-26.88
-30.26
-33.04
-34.33
-33.36
-29.82
-23.90
-16.36
-8.26
-0.67
5.62
10.28
13.32
15.04
15.81
15.96
15.76
15.39
15.00
14.74
14.70
14.91
15.32
15.78
16.10
16.12
15.80
15.23
14.56
13.95
13.45
12.98
12.34
11.35
9.91
8.06
5.99
3.93
2.09
0.65
-0.36
-0.99
-1.39
-1.71
-2.10
-2.62
-3.21
-3.76
-4.16
-4.35
-4.38
-4.39
-4.59
-5.21
-6.36
-8.03
-10.02
-12.07
-13.92
-15.45
-16.75
-18.05
-19.68
-21.92
-24.90
-28.53
-32.42
-35.94
-38.20
-38.34
-35.78
-30.51
-23.16
-14.82
-6.68
0.34
5.88
10.05
13.19
15.63
17.60
19.23
20.61
21.94
23.40
25.14
27.16
29.34
31.49
33.40
34.88
35.83
36.18
35.95
35.19
34.00
32.42
30.48
28.16
25.55
22.80
20.18
17.96
16.31
15.19
14.44
13.84
13.27
12.70
12.28
12.16
12.38
12.88
13.43
13.71
13.36
12.09
9.71
6.28
1.98
-2.83
-7.79
-12.62
-17.18
-21.49
-25.66
-29.80
-33.90
-37.78
-41.03
-43.02
-43.10
-40.78
-36.04
-29.44
-22.02
-15.05
-9.61
-6.24
-4.86
-4.89
-5.59
-6.40
-7.04
-7.53
-7.98
-8.46
-8.84
-8.98
-8.75
-8.19
-7.48
-6.82
-6.34
-5.95
-5.51
-4.86
-4.00
-3.18
-2.76
-3.03
-4.05
-5.60
-7.29
-8.72
-9.67
-10.19
-10.49
-10.84
-11.43
-12.25
-13.17
-14.00
-14.58
-14.89
-15.04
-15.18
-15.52
-16.12
-16.92
-17.76
-18.48
-18.99
-19.34
-19.73
-20.42
-21.63
-23.50
-26.01
-28.84
-31.41
-32.88
-32.40
-29.37
-23.74
-16.09
-7.41
1.11
8.55
14.36
18.42
20.88
21.99
22.04
21.30
20.07
18.70
17.57
17.00
17.19
18.14
19.63
21.30
22.76
23.72
24.05
23.79
23.11
22.16
21.02
19.72
18.28
16.75
15.15
13.56
11.93
10.22
8.32
6.24
4.02
1.86
-0.04
-1.49
-2.49
-3.15
-3.70
-4.45
-5.54
-7.04
-8.81
-10.66
-12.40
-13.91
-15.26
-16.60
-18.19
-20.21
-22.77
-25.69
-28.57
-30.70
-31.29
-29.71
-25.67
-19.42
-11.71
-3.60
3.86
9.85
13.97
16.29
17.19
17.19
16.80
16.37
16.06
15.89
15.81
15.83
16.01
16.38
16.96
17.64
18.21
18.50
18.43
18.05
17.54
17.04
16.59
16.12
15.46
14.48
13.12
11.47
9.65
7.89
6.35
5.14
4.25
3.56
2.88
1.99
0.72
-0.98
-3.02
-5.19
-7.27
-9.08
-10.53
-11.69
-12.73
-13.87
-15.35
-17.34
-19.92
-22.99
-26.16
-28.83
-30.18
-29.42
-26.08
-20.14
-12.16
-3.13
5.78
13.54
19.47
23.37
25.40
25.97
25.51
24.40
22.84
20.98
18.97
17.02
15.39
14.30
13.78
13.67
13.68
13.49
12.95
12.09
11.12
10.25
9.54
8.90
8.15
7.15
5.85
4.34
2.74
1.16
-0.33
-1.72
-2.97
-4.04
-4.91
-5.64
-6.34
-7.17
-8.20
-9.37
-10.52
-11.49
-12.22
-12.80
-13.45
-14.39
-15.79
-17.70
-20.01
-22.45
-24.62
-25.95
-25.87
-23.96
-20.15
-14.76
-8.47
-2.13
3.52
7.97
11.04
12.81
13.50
13.40
12.77
11.85
10.85
9.93
9.20
8.71
8.44
8.31
8.17
7.88
7.37
6.63
5.76
4.94
4.27
3.77
3.30
2.70
1.82
0.69
-0.56
-1.69
-2.58
-3.28
-3.96
-4.83
-6.00
-7.35
-8.65
-9.66
-10.30
-10.69
-11.15
-12.00
-13.49
-15.66
-18.35
-21.27
-23.97
-25.93
-26.60
-25.46
-22.27
-17.18
-10.80
-4.09
1.98
6.70
9.85
11.63
12.48
12.79
12.80
12.56
12.05
11.39
10.79
10.52
10.73
11.40
12.29
13.11
13.59
13.59
13.11
12.22
11.05
9.67
8.17
6.62
5.09
3.69
2.42
1.24
-0.03
-1.58
-3.59
-6.05
-8.78
-11.51
-13.91
-15.79
-17.15
-18.19
-19.24
-20.65
-22.67
-25.42
-28.75
-32.28
-35.32
-36.99
-36.44
-33.18
-27.29
-19.56
-11.23
-3.56
2.57
6.94
9.88
11.97
13.69
15.21
16.44
17.26
17.67
17.88
18.17
18.74
19.60
20.66
21.71
22.61
23.26
23.59
23.52
23.01
22.05
20.65
18.91
16.93
14.81
12.62
10.42
8.27
6.26
4.42
2.72
1.07
-0.68
-2.68
-4.97
-7.53
-10.23
-12.85
-15.21
-17.18
-18.76
-20.08
-21.38
-22.99
-25.20
-28.23
-32.14
-36.76
-41.59
-45.79
-48.25
-47.90
-44.07
-36.86
-27.16
-16.50
-6.46
1.79
7.83
11.98
14.94
17.40
19.75
21.97
23.86
25.24
26.13
26.75
27.37
28.21
29.26
30.35
31.23
31.70
31.73
31.44
31.00
30.48
29.82
28.77
27.08
24.65
21.62
18.36
15.31
12.83
10.99
9.55
8.14
6.42
4.24
1.79
-0.60
-2.58
-3.97
-4.92
-5.78
-6.94
-8.70
-11.10
-13.95
-16.91
-19.68
-22.08
-24.11
-25.96
-27.89
-30.18
-33.10
-36.73
-40.92
-45.16
-48.58
-50.10
-48.75
-44.04
-36.22
-26.26
-15.56
-5.52
2.88
9.31
13.91
17.09
19.28
20.83
22.02
23.09
24.23
25.55
27.05
28.59
30.02
31.19
32.03
32.52
32.65
32.38
31.73
30.86
29.90
28.95
27.92
26.57
24.65
22.05
18.96
15.80
13.04
10.99
9.64
8.66
7.58
6.06
4.02
1.65
-0.71
-2.78
-4.43
-5.76
-6.99
-8.34
-9.94
-11.78
-13.75
-15.72
-17.57
-19.22
-20.65
-21.93
-23.23
-24.79
-26.85
-29.49
-32.51
-35.37
-37.23
-37.14
-34.42
-28.91
-21.13
-12.18
-3.40
4.01
9.39
12.68
14.35
15.03
15.31
15.51
15.77
16.11
16.52
17.02
17.58
18.19
18.75
19.21
19.51
19.64
19.62
19.44
19.09
18.54
17.75
16.70
15.42
13.92
12.23
10.39
8.42
6.39
4.38
2.48
0.79
-0.60
-1.63
-2.25
-2.51
-2.53
-2.54
-2.82
-3.56
-4.82
-6.46
-8.18
-9.71
-10.91
-11.85
-12.77
-13.94
-15.56
-17.68
-20.14
-22.66
-24.75
-25.87
-25.47
-23.16
-18.91
-13.13
-6.61
-0.28
5.08
9.07
11.68
13.19
13.89
13.98
13.54
12.62
11.34
9.97
8.90
8.44
8.76
9.79
11.23
12.69
13.81
14.39
14.43
14.09
13.56
12.95
12.25
11.32
10.04
8.32
6.24
3.97
1.79
-0.04
-1.38
-2.21
-2.68
-3.07
-3.67
-4.67
-6.12
-7.89
-9.77
-11.57
-13.15
-14.54
-15.87
-17.30
-19.02
-21.13
-23.62
-26.37
-29.11
-31.37
-32.56
-32.06
-29.40
-24.47
-17.63
-9.67
-1.69
5.30
10.62
14.08
15.95
16.77
17.03
17.05
16.97
16.81
16.62
16.53
16.65
17.05
17.62
18.14
18.37
18.16
17.58
16.78
15.96
15.18
14.41
13.53
12.42
11.05
9.46
7.76
6.01
4.26
2.57
0.99
-0.38
-1.51
-2.44
-3.32
-4.38
-5.78
-7.54
-9.54
-11.55
-13.38
-14.96
-16.37
-17.82
-19.57
-21.80
-24.63
-28.02
-31.76
-35.43
-38.37
-39.81
-39.01
-35.57
-29.59
-21.78
-13.25
-5.15
1.65
6.76
10.30
12.61
14.00
14.64
14.59
14.07
13.47
13.41
14.42
16.65
19.80
23.15
25.89
27.42
27.61
26.70
25.16
23.45
21.84
20.39
18.99
17.41
15.47
13.12
10.41
7.57
4.89
2.59
0.71
-0.89
-2.48
-4.30
-6.42
-8.75
-11.04
-13.10
-14.80
-16.18
-17.35
-18.49
-19.79
-21.46
-23.73
-26.69
-30.16
-33.60
-36.10
-36.62
-34.39
-29.22
-21.69
-12.91
-4.22
3.30
9.10
13.21
15.98
17.82
18.98
19.55
19.52
19.01
18.28
17.71
17.63
18.15
19.11
20.18
21.00
21.32
21.11
20.49
19.66
18.77
17.88
16.92
15.78
14.30
12.46
10.27
7.86
5.40
3.06
0.99
-0.76
-2.24
-3.54
-4.84
-6.25
-7.83
-9.54
-11.26
-12.81
-14.11
-15.14
-16.02
-16.95
-18.20
-20.05
-22.60
-25.77
-29.11
-31.84
-33.04
-31.96
-28.28
-22.32
-14.92
-7.14
0.04
6.03
10.64
13.97
16.17
17.40
17.75
17.35
16.45
15.32
14.32
13.69
13.53
13.87
14.58
15.46
16.30
16.85
16.94
16.50
15.58
14.29
12.81
11.23
9.58
7.82
5.91
3.86
1.80
-0.16
-1.94
-3.58
-5.21
-6.99
-8.98
-11.02
-12.87
-14.29
-15.17
-15.67
-16.13
-16.98
-18.53
-20.96
-24.15
-27.72
-30.96
-32.95
-32.73
-29.67
-23.76
-15.75
-6.92
1.32
7.93
12.52
15.30
16.77
17.46
17.65
17.43
16.85
16.02
15.18
14.62
14.50
14.81
15.37
15.92
16.27
16.34
16.19
15.96
15.72
15.40
14.78
13.61
11.74
9.22
6.35
3.50
1.05
-0.90
-2.45
-3.89
-5.52
-7.48
-9.69
-11.90
-13.85
-15.44
-16.75
-18.03
-19.60
-21.72
-24.52
-27.95
-31.71
-35.21
-37.64
-38.11
-35.94
-30.94
-23.64
-15.11
-6.64
0.65
6.24
10.18
12.93
15.00
16.71
18.04
18.85
19.09
18.93
18.75
18.93
19.69
20.92
22.28
23.33
23.74
23.44
22.59
21.49
20.38
19.34
18.24
16.83
14.90
12.39
9.50
6.56
3.90
1.70
-0.13
-1.83
-3.73
-6.00
-8.59
-11.28
-13.77
-15.86
-17.49
-18.81
-20.06
-21.47
-23.25
-25.53
-28.40
-31.83
-35.56
-38.99
-41.22
-41.22
-38.21
-32.03
-23.27
-13.19
-3.29
5.17
11.50
15.68
18.14
19.48
20.24
20.76
21.22
21.73
22.35
23.14
24.06
25.02
25.90
26.59
27.03
27.20
27.12
26.76
26.09
25.03
23.53
21.57
19.19
16.51
13.67
10.83
8.10
5.58
3.35
1.43
-0.18
-1.56
-2.86
-4.23
-5.83
-7.74
-9.94
-12.30
-14.64
-16.71
-18.36
-19.52
-20.34
-21.10
-22.21
-24.04
-26.84
-30.60
-35.00
-39.47
-43.17
-45.15
-44.52
-40.71
-33.71
-24.22
-13.51
-3.11
5.66
12.11
16.31
18.83
20.44
21.66
22.68
23.39
23.68
23.57
23.28
23.12
23.25
23.61
23.99
24.13
23.91
23.38
22.71
22.05
21.40
20.61
19.43
17.72
15.51
13.04
10.65
8.58
6.90
5.51
4.23
2.93
1.65
0.49
-0.40
-1.00
-1.41
-1.82
-2.49
-3.58
-5.15
-7.14
-9.41
-11.73
-13.92
-15.83
-17.45
-18.94
-20.61
-22.75
-25.50
-28.77
-32.10
-34.74
-35.87
-34.72
-30.93
-24.59
-16.39
-7.38
1.27
8.62
14.17
17.89
20.05
21.03
21.16
20.61
19.58
18.30
17.12
16.39
16.31
16.83
17.64
18.30
18.44
17.94
16.87
15.49
14.01
12.59
11.22
9.79
8.16
6.19
3.87
1.28
-1.34
-3.69
-5.51
-6.71
-7.43
-7.98
-8.67
-9.68
-10.90
-12.07
-12.88
-13.17
-13.05
-12.89
-13.09
-14.02
-15.89
-18.70
-22.17
-25.78
-28.81
-30.41
-29.94
-27.12
-22.19
-15.82
-8.92
-2.31
3.42
7.98
11.33
13.52
14.67
14.96
14.64
14.03
13.43
13.04
12.93
13.04
13.30
13.64
14.00
14.33
14.62
14.84
15.00
15.06
14.94
14.51
13.59
12.09
10.00
7.53
4.99
2.67
0.72
-0.96
-2.57
-4.36
-6.50
-8.96
-11.56
-14.05
-16.26
-18.15
-19.85
-21.66
-23.85
-26.65
-30.06
-33.78
-37.22
-39.52
-39.75
-37.24
-31.80
-23.90
-14.59
-5.22
3.02
9.41
13.82
16.58
18.17
19.03
19.38
19.31
18.95
18.52
18.30
18.54
19.30
20.42
21.56
22.36
22.62
22.35
21.69
20.83
19.83
18.63
17.06
15.04
12.58
9.88
7.22
4.83
2.78
0.97
-0.80
-2.74
-4.93
-7.33
-9.80
-12.17
-14.26
-16.02
-17.47
-18.79
-20.26
-22.23
-24.98
-28.51
-32.47
-36.11
-38.47
-38.62
-35.99
-30.53
-22.81
-13.73
-4.38
4.26
11.50
16.92
20.42
22.17
22.48
21.86
20.86
19.95
19.42
19.37
19.67
20.07
20.33
20.32
20.06
19.66
19.25
18.90
18.56
18.13
17.44
16.41
14.93
13.01
10.71
8.18
5.61
3.14
0.86
-1.26
-3.32
-5.45
-7.67
-9.91
-12.01
-13.83
-15.31
-16.55
-17.82
-19.46
-21.87
-25.19
-29.25
-33.41
-36.68
-37.96
-36.38
-31.67
-24.29
-15.27
-5.94
2.55
9.46
14.56
17.98
20.06
21.16
21.52
21.30
20.62
19.66
18.66
17.86
17.46
17.54
17.97
18.56
19.07
19.35
19.35
19.05
18.44
17.40
15.77
13.42
10.41
6.97
3.50
0.41
-2.08
-3.96
-5.52
-7.16
-9.25
-11.95
-15.17
-18.55
-21.69
-24.29
-26.30
-28.03
-30.00
-32.77
-36.67
-41.58
-46.80
-51.11
-53.08
-51.52
-45.94
-36.76
-25.27
-13.20
-2.16
6.85
13.56
18.27
21.53
23.78
25.26
26.02
26.16
25.91
25.64
25.71
26.27
27.25
28.33
29.14
29.45
29.24
28.73
28.16
27.67
27.10
26.08
24.22
21.30
17.45
13.15
8.96
5.35
2.46
0.08
-2.24
-4.91
-8.14
-11.84
-15.61
-19.03
-21.74
-23.66
-25.06
-26.42
-28.34
-31.31
-35.59
-41.00
-46.91
-52.22
-55.54
-55.55
-51.45
-43.27
-31.97
-19.20
-6.73
4.05
12.51
18.73
23.20
26.44
28.72
30.13
30.66
30.50
30.00
29.62
29.74
30.44
31.57
32.74
33.59
33.84
33.44
32.46
31.08
29.43
27.58
25.46
22.89
19.76
16.04
11.94
7.88
4.31
1.55
-0.41
-1.91
-3.50
-5.64
-8.55
-12.03
-15.71
-19.13
-22.02
-24.36
-26.32
-28.18
-30.19
-32.59
-35.65
-39.55
-44.27
-49.30
-53.54
-55.48
-53.66
-47.32
-36.77
-23.42
-9.30
3.62
14.05
21.58
26.55
29.56
31.17
31.71
31.39
30.48
29.40
28.65
28.57
29.28
30.54
31.86
32.76
32.90
32.23
30.95
29.40
27.87
26.47
25.13
23.64
21.70
19.14
15.92
12.22
8.40
4.85
1.86
-0.45
-2.25
-3.90
-5.77
-8.13
-10.96
-14.01
-16.89
-19.29
-21.09
-22.42
-23.59
-24.98
-26.93
-29.69
-33.38
-37.89
-42.79
-47.24
-50.06
-50.03
-46.29
-38.74
-28.19
-16.15
-4.33
5.83
13.63
19.05
22.54
24.60
25.63
25.80
25.24
24.16
22.92
21.91
21.44
21.52
21.96
22.43
22.66
22.54
22.12
21.49
20.66
19.53
17.88
15.56
12.55
9.07
5.44
2.00
-0.99
-3.44
-5.39
-6.98
-8.37
-9.76
-11.24
-12.83
-14.48
-16.10
-17.64
-19.14
-20.78
-22.80
-25.48
-28.87
-32.70
-36.30
-38.69
-38.83
-35.99
-30.09
-21.73
-12.10
-2.55
5.83
12.42
17.14
20.26
22.17
23.13
23.30
22.81
21.84
20.65
19.58
18.89
18.69
18.90
19.28
19.56
19.53
19.09
18.28
17.15
15.78
14.15
12.21
9.88
7.15
4.08
0.81
-2.47
-5.59
-8.42
-10.91
-13.06
-14.91
-16.59
-18.25
-20.08
-22.26
-24.96
-28.27
-32.12
-36.20
-39.84
-42.17
-42.23
-39.32
-33.36
-24.90
-15.04
-5.11
3.81
11.10
16.65
20.70
23.56
25.41
26.31
26.26
25.39
24.04
22.65
21.66
21.28
21.41
21.74
21.89
21.60
20.81
19.61
18.11
16.39
14.47
12.34
10.04
7.68
5.33
2.99
0.54
-2.16
-5.14
-8.24
-11.17
-13.65
-15.58
-17.12
-18.63
-20.54
-23.16
-26.56
-30.51
-34.44
-37.48
-38.70
-37.31
-32.98
-26.04
-17.36
-8.23
0.23
7.26
12.69
16.73
19.76
22.04
23.61
24.42
24.44
23.81
22.86
21.93
21.27
20.89
20.62
20.22
19.52
18.50
17.21
15.81
14.36
12.85
11.21
9.33
7.16
4.68
1.92
-1.05
-4.10
-7.01
-9.60
-11.75
-13.55
-15.33
-17.53
-20.49
-24.34
-28.78
-33.21
-36.84
-38.87
-38.75
-36.22
-31.36
-24.60
-16.64
-8.31
-0.43
6.36
11.70
15.52
18.02
19.47
20.23
20.57
20.73
20.91
21.21
21.60
21.92
21.94
21.43
20.35
18.80
17.05
15.31
13.71
12.18
10.55
8.63
6.33
3.71
0.93
-1.87
-4.55
-7.08
-9.46
-11.72
-13.90
-16.15
-18.70
-21.78
-25.46
-29.47
-33.09
-35.29
-35.10
-31.96
-26.01
-18.05
-9.29
-0.91
6.32
12.13
16.61
19.98
22.41
23.93
24.50
24.20
23.27
22.10
21.14
20.70
20.85
21.37
21.86
21.90
21.24
19.85
17.96
15.85
13.74
11.71
9.66
7.49
5.05
2.37
-0.46
-3.27
-5.90
-8.21
-10.15
-11.80
-13.29
-14.84
-16.66
-18.90
-21.65
-24.90
-28.47
-32.01
-34.90
-36.34
-35.60
-32.22
-26.27
-18.41
-9.73
-1.39
5.67
10.97
14.56
16.80
18.15
18.95
19.39
19.50
19.33
18.99
18.69
18.69
19.15
20.03
21.11
22.09
22.67
22.70
22.22
21.34
20.18
18.78
17.10
15.06
12.66
10.06
7.47
5.16
3.31
1.94
0.88
-0.15
-1.48
-3.36
-5.83
-8.72
-11.66
-14.27
-16.27
-17.68
-18.78
-20.03
-21.92
-24.68
-28.27
-32.28
-36.04
-38.73
-39.57
-38.01
-33.84
-27.36
-19.24
-10.46
-1.99
5.38
11.19
15.33
17.97
19.41
20.04
20.19
20.11
19.99
19.93
20.02
20.34
20.93
21.74
22.62
23.32
23.61
23.31
22.46
21.24
19.88
18.52
17.16
15.70
14.01
12.07
10.01
8.05
6.42
5.18
4.25
3.44
2.52
1.36
-0.06
-1.62
-3.16
-4.57
-5.86
-7.10
-8.42
-9.91
-11.58
-13.38
-15.17
-16.83
-18.29
-19.58
-20.81
-22.20
-24.05
-26.61
-29.93
-33.72
-37.33
-39.78
-40.08
-37.53
-31.99
-23.96
-14.50
-4.89
3.72
10.58
15.48
18.61
20.39
21.21
21.36
21.04
20.41
19.68
19.09
18.78
18.80
18.98
19.13
19.07
18.77
18.29
17.76
17.24
16.73
16.12
15.31
14.25
12.92
11.38
9.67
7.89
6.17
4.66
3.52
2.87
2.65
2.66
2.62
2.29
1.54
0.45
-0.81
-2.05
-3.18
-4.23
-5.34
-6.64
-8.19
-9.94
-11.78
-13.57
-15.19
-16.56
-17.70
-18.69
-19.68
-20.87
-22.47
-24.64
-27.36
-30.36
-33.01
-34.49
-33.94
-30.79
-25.05
-17.32
-8.67
-0.30
6.85
12.26
15.91
18.04
18.98
19.06
18.51
17.58
16.48
15.48
14.78
14.47
14.52
14.79
15.14
15.46
15.69
15.79
15.76
15.57
15.18
14.56
13.66
12.47
10.97
9.24
7.42
5.68
4.23
3.12
2.32
1.67
1.02
0.29
-0.47
-1.21
-1.88
-2.53
-3.27
-4.19
-5.31
-6.59
-8.00
-9.53
-11.19
-12.98
-14.76
-16.35
-17.54
-18.27
-18.67
-19.05
-19.80
-21.19
-23.24
-25.58
-27.62
-28.57
-27.79
-24.93
-20.09
-13.80
-6.86
-0.14
5.59
9.88
12.58
13.80
13.85
13.09
11.91
10.63
9.52
8.76
8.44
8.54
8.99
9.60
10.19
10.62
10.84
10.91
10.91
10.90
10.87
10.75
10.45
9.92
9.10
7.97
6.55
4.88
3.10
1.43
0.10
-0.74
-1.07
-1.03
-0.83
-0.67
-0.67
-0.92
-1.52
-2.51
-3.91
-5.61
-7.42
-9.11
-10.55
-11.77
-12.97
-14.42
-16.33
-18.76
-21.48
-24.04
-25.76
-25.93
-24.02
-19.85
-13.80
-6.72
0.29
6.24
10.55
13.13
14.35
14.74
14.75
14.61
14.40
14.07
13.67
13.27
12.97
12.79
12.68
12.55
12.37
12.15
11.98
11.90
11.91
11.91
11.77
11.36
10.61
9.48
8.02
6.29
4.47
2.76
1.35
0.35
-0.31
-0.79
-1.32
-1.98
-2.77
-3.58
-4.36
-5.10
-5.90
-6.86
-8.00
-9.15
-10.07
-10.54
-10.50
-10.16
-9.92
-10.23
-11.36
-13.28
-15.57
-17.52
-18.34
-17.48
-14.81
-10.74
-5.99
-1.40
2.37
5.00
6.50
7.06
6.89
6.20
5.12
3.82
2.55
1.55
1.01
0.99
1.36
1.90
2.43
2.87
3.21
3.46
3.60
3.59
3.42
3.10
2.69
2.21
1.66
0.99
0.13
-0.92
-2.08
-3.24
-4.29
-5.17
-5.87
-6.42
-6.82
-7.11
-7.31
-7.56
-7.96
-8.60
-9.46
-10.41
-11.29
-12.00
-12.58
-13.21
-14.12
-15.47
-17.31
-19.50
-21.78
-23.78
-25.03
-25.09
-23.58
-20.38
-15.74
-10.32
-4.98
-0.51
2.62
4.43
5.31
5.73
6.03
6.27
6.29
5.95
5.24
4.38
3.72
3.51
3.86
4.66
5.66
6.60
7.38
7.94
8.33
8.58
8.61
8.34
7.70
6.70
5.43
4.06
2.73
1.51
0.43
-0.52
-1.36
-2.15
-2.93
-3.82
-4.92
-6.29
-7.90
-9.66
-11.43
-13.10
-14.67
-16.20
-17.87
-19.83
-22.19
-24.98
-28.10
-31.28
-34.08
-35.93
-36.25
-34.68
-31.18
-26.13
-20.23
-14.26
-8.90
-4.52
-1.22
1.11
2.63
3.53
4.02
4.33
4.83
5.85
7.63
10.20
13.30
16.52
19.40
21.61
22.96
23.50
23.40
22.85
22.09
21.28
20.54
19.90
19.29
18.60
17.70
16.55
15.25
13.99
12.99
12.36
12.06
11.92
11.71
11.27
10.52
9.50
8.29
6.98
5.67
4.42
3.23
1.98
0.47
-1.53
-4.17
-7.40
-10.85
-13.93
-15.95
-16.40
-15.09
-12.31
-8.60
-4.68
-1.15
1.63
3.59
4.86
5.63
6.08
6.34
6.47
6.51
6.51
6.55
6.70
7.05
7.70
8.70
10.04
11.61
13.14
14.31
14.76
14.22
12.57
9.95
6.74
3.48
0.68
-1.27
-2.30
-2.61
-2.58
-2.59
-2.87
-3.48
-4.33
-5.32
-6.38
-7.49
-8.54
-9.29
-9.41
-8.59
-6.78
-4.29
-1.69
0.28
1.11
0.60
-1.08
-3.54
-6.28
-8.89
-10.97
-12.17
-12.23
-10.98
-8.52
-5.22
-1.59
1.81
4.65
6.78
8.27
9.26
9.81
9.90
9.46
8.50
7.17
5.80
4.77
4.35
4.59
5.25
6.01
6.54
6.70
6.55
6.28
5.98
5.66
5.20
4.53
3.70
2.87
2.19
1.67
1.14
0.40
-0.71
-2.13
-3.66
-5.00
-5.91
-6.25
-6.07
-5.52
-4.82
-4.29
-4.22
-4.81
-6.08
-7.86
-9.83
-11.69
-13.27
-14.56
-15.65
-16.70
-17.86
-19.13
-20.41
-21.45
-21.86
-21.17
-19.02
-15.27
-10.11
-4.09
2.00
7.42
11.64
14.49
16.17
17.03
17.42
17.53
17.44
17.16
16.82
16.63
16.82
17.50
18.50
19.49
20.05
19.96
19.22
18.06
16.75
15.49
14.30
13.12
11.85
10.49
9.09
7.71
6.39
5.13
3.90
2.76
1.76
0.98
0.40
-0.10
-0.70
-1.55
-2.70
-4.09
-5.56
-6.95
-8.14
-9.15
-10.08
-11.08
-12.35
-14.03
-16.25
-18.99
-22.05
-25.01
-27.23
-28.03
-26.87
-23.61
-18.59
-12.62
-6.64
-1.44
2.53
5.26
6.98
8.07
8.78
9.27
9.59
9.80
9.97
10.20
10.57
11.10
11.73
12.34
12.78
12.94
12.79
12.38
11.78
11.12
10.46
9.78
9.03
8.16
7.16
6.10
5.04
4.02
3.00
1.91
0.67
-0.71
-2.15
-3.50
-4.71
-5.81
-6.94
-8.25
-9.82
-11.60
-13.41
-15.10
-16.58
-17.91
-19.34
-21.09
-23.42
-26.31
-29.57
-32.65
-34.79
-35.15
-33.15
-28.59
-21.84
-13.76
-5.47
2.04
8.11
12.50
15.37
17.03
17.79
17.93
17.70
17.30
16.96
16.86
17.03
17.42
17.90
18.37
18.80
19.18
19.47
19.57
19.34
18.67
17.53
15.99
14.14
12.04
9.71
7.22
4.71
2.37
0.43
-1.05
-2.17
-3.18
-4.35
-5.88
-7.82
-10.04
-12.38
-14.66
-16.79
-18.78
-20.71
-22.69
-24.87
-27.40
-30.41
-33.92
-37.69
-41.19
-43.53
-43.73
-41.03
-35.21
-26.81
-16.92
-6.94
1.97
9.11
14.33
17.89
20.21
21.64
22.47
22.84
22.93
22.97
23.15
23.61
24.37
25.28
26.13
26.70
26.81
26.45
25.78
24.98
24.17
23.33
22.26
20.74
18.62
16.07
13.43
11.16
9.55
8.59
7.93
7.14
5.87
4.05
1.90
-0.22
-1.96
-3.20
-4.05
-4.78
-5.73
-7.13
-9.05
-11.31
-13.67
-15.85
-17.71
-19.30
-20.83
-22.60
-24.87
-27.77
-31.20
-34.83
-38.08
-40.21
-40.48
-38.29
-33.45
-26.29
-17.63
-8.63
-0.48
5.95
10.37
13.00
14.45
15.35
16.12
16.89
17.59
18.14
18.55
18.93
19.42
20.04
20.65
21.10
21.26
21.14
20.88
20.57
20.21
19.70
18.91
17.80
16.39
14.81
13.19
11.59
10.00
8.38
6.73
5.14
3.72
2.53
1.58
0.74
-0.19
-1.36
-2.84
-4.57
-6.39
-8.16
-9.73
-11.07
-12.17
-13.13
-14.07
-15.15
-16.56
-18.43
-20.75
-23.27
-25.45
-26.56
-25.88
-23.00
-17.98
-11.38
-4.13
2.82
8.73
13.20
16.19
17.84
18.36
17.98
16.89
15.38
13.77
12.40
11.50
11.15
11.30
11.81
12.51
13.24
13.91
14.38
14.57
14.44
14.03
13.43
12.75
12.01
11.13
9.98
8.45
6.53
4.38
2.25
0.35
-1.20
-2.41
-3.34
-4.11
-4.81
-5.56
-6.44
-7.54
-8.83
-10.16
-11.25
-11.85
-11.91
-11.66
-11.63
-12.39
-14.41
-17.75
-21.99
-26.33
-29.76
-31.39
-30.58
-27.21
-21.70
-14.87
-7.78
-1.45
3.45
6.72
8.55
9.41
9.72
9.78
9.73
9.57
9.39
9.28
9.42
9.89
10.68
11.68
12.72
13.72
14.61
15.42
16.11
16.55
16.62
16.16
15.10
13.48
11.48
9.30
7.13
5.11
3.25
1.52
-0.15
-1.85
-3.59
-5.36
-7.09
-8.77
-10.40
-12.09
-13.96
-16.08
-18.39
-20.72
-22.83
-24.57
-25.96
-27.25
-28.87
-31.23
-34.62
-39.09
-44.32
-49.63
-53.99
-56.19
-55.20
-50.43
-42.12
-31.28
-19.44
-8.12
1.57
9.22
15.01
19.43
22.91
25.68
27.76
29.13
29.92
30.41
30.95
31.79
32.94
34.22
35.30
35.93
35.97
35.51
34.73
33.75
32.61
31.20
29.34
26.91
23.96
20.70
17.47
14.58
12.13
9.97
7.77
5.23
2.27
-0.90
-3.88
-6.24
-7.84
-8.85
-9.70
-10.87
-12.66
-15.13
-18.08
-21.20
-24.17
-26.77
-28.94
-30.81
-32.71
-35.06
-38.27
-42.53
-47.57
-52.58
-56.33
-57.46
-54.84
-48.08
-37.65
-24.87
-11.51
0.75
10.72
18.00
22.84
25.89
27.81
29.08
29.91
30.42
30.71
30.98
31.46
32.26
33.36
34.54
35.44
35.84
35.70
35.17
34.51
33.92
33.43
32.81
31.72
29.89
27.26
24.06
20.73
17.68
15.21
13.24
11.54
9.72
7.54
4.99
2.25
-0.42
-2.83
-4.95
-6.93
-8.99
-11.29
-13.87
-16.60
-19.26
-21.66
-23.66
-25.32
-26.78
-28.34
-30.33
-33.03
-36.57
-40.79
-45.14
-48.67
-50.24
-48.83
-43.88
-35.58
-24.84
-13.08
-1.76
7.96
15.44
20.61
23.72
25.20
25.48
24.95
23.97
22.86
21.91
21.33
21.23
21.61
22.38
23.39
24.45
25.35
25.91
26.00
25.63
24.84
23.72
22.29
20.54
18.41
15.92
13.18
10.43
7.91
5.80
4.12
2.79
1.70
0.78
-0.01
-0.74
-1.54
-2.58
-3.96
-5.70
-7.61
-9.44
-10.97
-12.15
-13.13
-14.20
-15.75
-18.07
-21.26
-25.14
-29.17
-32.47
-34.00
-32.90
-28.75
-21.85
-13.14
-3.95
4.41
11.00
15.49
18.07
19.20
19.37
18.89
17.90
16.46
14.70
12.82
11.15
9.95
9.38
9.41
9.87
10.45
10.89
10.97
10.60
9.83
8.76
7.49
6.06
4.47
2.70
0.72
-1.41
-3.59
-5.70
-7.70
-9.52
-11.14
-12.52
-13.60
-14.37
-14.89
-15.31
-15.82
-16.55
-17.54
-18.70
-19.88
-20.92
-21.76
-22.47
-23.28
-24.50
-26.44
-29.22
-32.62
-36.05
-38.62
-39.39
-37.75
-33.60
-27.43
-20.19
-12.98
-6.68
-1.81
1.53
3.56
4.67
5.28
5.76
6.37
7.31
8.64
10.34
12.25
14.19
15.94
17.40
18.49
19.33
20.03
20.71
21.47
22.30
23.10
23.75
24.13
24.14
23.75
22.98
21.91
20.69
19.46
18.31
17.20
16.03
14.69
13.18
11.61
10.21
9.20
8.63
8.42
8.34
8.18
7.79
7.24
6.71
6.48
6.78
7.67
9.02
10.48
11.62
12.12
11.95
11.42
11.11
11.60
13.29
16.26
20.29
24.90
29.56
33.79
37.17
39.39
40.31
39.89
38.30
35.73
32.40
28.47
24.14
19.62
15.23
11.31
8.11
5.67
3.81
2.24
0.68
-0.98
-2.69
-4.29
-5.66
-6.82
-7.85
-8.93
-10.15
-11.46
-12.71
-13.69
-14.24
-14.36
-14.20
-13.99
-13.98
-14.29
-14.88
-15.62
-16.34
-16.94
-17.42
-17.89
-18.42
-19.05
-19.76
-20.52
-21.34
-22.31
-23.58
-25.32
-27.61
-30.30
-32.96
-34.90
-35.34
-33.69
-29.78
-23.95
-16.95
-9.74
-3.15
2.27
6.34
9.13
10.90
11.94
12.45
12.57
12.38
11.95
11.40
10.87
10.53
10.45
10.63
10.93
11.19
11.28
11.16
10.83
10.28
9.53
8.52
7.27
5.78
4.16
2.51
0.95
-0.45
-1.64
-2.65
-3.54
-4.40
-5.35
-6.46
-7.69
-8.95
-10.08
-10.96
-11.61
-12.16
-12.90
-14.14
-16.14
-18.93
-22.22
-25.33
-27.42
-27.66
-25.60
-21.36
-15.62
-9.37
-3.57
1.15
4.65
7.08
8.77
9.99
10.82
11.24
11.21
10.76
10.01
9.21
8.60
8.31
8.38
8.68
9.00
9.14
8.97
8.46
7.70
6.80
5.83
4.81
3.72
2.54
1.28
-0.03
-1.34
-2.60
-3.82
-4.98
-6.10
-7.21
-8.32
-9.51
-10.90
-12.60
-14.73
-17.34
-20.30
-23.27
-25.69
-26.89
-26.32
-23.78
-19.51
-14.17
-8.56
-3.38
0.98
4.44
7.11
9.09
10.39
10.98
10.88
10.29
9.56
9.03
8.92
9.22
9.71
10.13
10.23
9.93
9.28
8.48
7.73
7.16
6.79
6.44
5.85
4.76
3.07
0.87
-1.57
-3.92
-5.93
-7.60
-9.09
-10.64
-12.54
-14.95
-17.89
-21.18
-24.46
-27.17
-28.67
-28.38
-26.03
-21.79
-16.25
-10.22
-4.54
0.28
4.06
6.96
9.21
11.04
12.49
13.55
14.16
14.36
14.26
14.05
13.89
13.85
13.91
14.00
14.07
14.06
13.90
13.57
12.99
12.14
11.01
9.66
8.15
6.51
4.71
2.64
0.25
-2.43
-5.19
-7.79
-9.98
-11.67
-12.96
-14.08
-15.30
-16.90
-19.07
-21.90
-25.32
-29.04
-32.51
-35.02
-35.79
-34.31
-30.49
-24.76
-17.94
-10.99
-4.70
0.52
4.66
8.02
10.94
13.64
16.11
18.23
19.83
20.85
21.38
21.61
21.73
21.87
22.07
22.34
22.64
22.96
23.25
23.36
23.13
22.38
21.06
19.30
17.34
15.45
13.81
12.39
11.10
9.75
8.27
6.70
5.17
3.75
2.38
0.90
-0.91
-3.16
-5.82
-8.72
-11.60
-14.27
-16.59
-18.55
-20.18
-21.63
-23.13
-24.97
-27.43
-30.65
-34.46
-38.30
-41.30
-42.51
-41.25
-37.32
-31.14
-23.58
-15.69
-8.41
-2.32
2.38
5.85
8.44
10.53
12.44
14.36
16.37
18.45
20.50
22.43
24.13
25.52
26.52
27.11
27.25
27.02
26.55
25.99
25.49
25.02
24.44
23.56
22.25
20.50
18.53
16.61
14.96
13.61
12.42
11.17
9.77
8.28
6.87
5.71
4.79
3.94
2.86
1.29
-0.87
-3.48
-6.27
-8.93
-11.24
-13.20
-14.95
-16.68
-18.58
-20.74
-23.22
-26.00
-29.00
-31.97
-34.38
-35.53
-34.67
-31.33
-25.63
-18.27
-10.35
-2.92
3.37
8.41
12.40
15.67
18.35
20.44
21.89
22.76
23.30
23.81
24.48
25.30
26.05
26.50
26.52
26.13
25.43
24.57
23.59
22.47
21.21
19.76
18.11
16.29
14.34
12.33
10.38
8.57
6.98
5.64
4.48
3.39
2.23
0.91
-0.61
-2.29
-4.11
-6.00
-7.90
-9.69
-11.25
-12.53
-13.56
-14.51
-15.61
-17.08
-19.06
-21.56
-24.44
-27.43
-30.08
-31.86
-32.15
-30.48
-26.64
-20.87
-13.86
-6.52
0.17
5.58
9.44
11.94
13.47
14.43
15.06
15.40
15.38
14.98
14.32
13.70
13.37
13.47
13.89
14.34
14.53
14.32
13.78
13.13
12.54
12.03
11.45
10.57
9.22
7.42
5.37
3.37
1.69
0.46
-0.36
-0.97
-1.62
-2.51
-3.76
-5.32
-7.05
-8.78
-10.37
-11.76
-12.96
-14.04
-15.11
-16.31
-17.80
-19.71
-22.05
-24.61
-26.96
-28.45
-28.39
-26.31
-22.12
-16.20
-9.27
-2.22
4.16
9.37
13.18
15.63
16.91
17.28
17.04
16.46
15.77
15.12
14.59
14.20
13.93
13.77
13.71
13.68
13.58
13.30
12.71
11.80
10.62
9.31
8.01
6.77
5.57
4.30
2.85
1.18
-0.60
-2.32
-3.75
-4.72
-5.23
-5.41
-5.54
-5.94
-6.82
-8.20
-9.87
-11.53
-12.91
-13.95
-14.82
-15.84
-17.37
-19.59
-22.38
-25.38
-27.97
-29.49
-29.37
-27.26
-23.18
-17.49
-10.88
-4.19
1.79
6.47
9.61
11.27
11.77
11.52
10.91
10.21
9.63
9.27
9.20
9.47
10.07
10.94
11.93
12.84
13.47
13.73
13.61
13.25
12.74
12.19
11.57
10.80
9.79
8.51
7.07
5.64
4.42
3.54
2.96
2.53
2.05
1.37
0.42
-0.72
-1.91
-3.00
-3.91
-4.66
-5.39
-6.28
-7.53
-9.25
-11.39
-13.72
-15.91
-17.64
-18.81
-19.55
-20.24
-21.28
-22.94
-25.16
-27.58
-29.56
-30.40
-29.52
-26.59
-21.68
-15.25
-8.08
-1.08
4.97
9.55
12.55
14.21
14.91
15.06
15.00
14.93
14.95
15.08
15.26
15.43
15.51
15.49
15.36
15.14
14.84
14.41
13.84
13.07
12.14
11.07
9.95
8.81
7.68
6.59
5.57
4.67
3.93
3.31
2.74
2.13
1.39
0.58
-0.20
-0.82
-1.21
-1.45
-1.69
-2.08
-2.70
-3.48
-4.30
-5.07
-5.77
-6.46
-7.20
-7.98
-8.70
-9.28
-9.73
-10.21
-11.03
-12.42
-14.42
-16.71
-18.68
-19.59
-18.87
-16.34
-12.29
-7.39
-2.42
2.00
5.56
8.29
10.37
11.95
13.08
13.69
13.68
13.09
12.13
11.09
10.27
9.81
9.64
9.61
9.59
9.51
9.41
9.35
9.33
9.25
8.99
8.46
7.67
6.73
5.77
4.91
4.18
3.54
2.96
2.39
1.81
1.19
0.51
-0.25
-1.06
-1.85
-2.56
-3.15
-3.70
-4.35
-5.22
-6.33
-7.58
-8.75
-9.64
-10.16
-10.39
-10.52
-10.78
-11.38
-12.39
-13.85
-15.65
-17.61
-19.41
-20.60
-20.72
-19.38
-16.46
-12.23
-7.23
-2.23
2.12
5.37
7.43
8.46
8.78
8.68
8.33
7.89
7.40
6.97
6.65
6.51
6.60
6.87
7.27
7.70
8.04
8.17
8.05
7.67
7.16
6.60
6.07
5.57
5.06
4.46
3.78
3.07
2.38
1.71
1.00
0.15
-0.88
-2.02
-3.15
-4.15
-5.00
-5.74
-6.48
-7.29
-8.12
-8.87
-9.42
-9.77
-10.06
-10.49
-11.25
-12.50
-14.19
-16.20
-18.25
-19.93
-20.75
-20.28
-18.23
-14.67
-10.01
-4.93
-0.15
3.78
6.63
8.44
9.44
9.94
10.20
10.36
10.50
10.59
10.59
10.46
10.26
10.03
9.88
9.82
9.82
9.79
9.71
9.61
9.57
9.59
9.57
9.31
8.64
7.48
5.98
4.37
2.88
1.61
0.51
-0.56
-1.63
-2.65
-3.48
-4.01
-4.25
-4.35
-4.56
-5.10
-6.02
-7.23
-8.49
-9.57
-10.34
-10.81
-11.16
-11.58
-12.27
-13.34
-14.86
-16.83
-19.15
-21.58
-23.69
-24.91
-24.66
-22.57
-18.65
-13.38
-7.60
-2.19
2.12
4.99
6.50
6.98
6.87
6.52
6.11
5.74
5.45
5.32
5.51
6.09
7.01
8.07
8.95
9.38
9.25
8.70
8.05
7.61
7.53
7.74
8.00
8.03
7.69
7.02
6.19
5.41
4.79
4.30
3.79
3.12
2.18
0.98
-0.42
-1.92
-3.47
-5.02
-6.52
-7.86
-8.90
-9.54
-9.75
-9.61
-9.27
-8.87
-8.44
-7.98
-7.50
-7.16
-7.15
-7.65
-8.63
-9.68
-10.21
-9.58
-7.42
-3.87
0.53
5.04
9.01
12.10
14.28
15.67
16.44
16.67
16.39
15.67
14.64
13.51
12.43
11.50
10.70
9.99
9.27
8.53
7.73
6.89
6.09
5.41
5.02
5.03
5.41
5.94
6.31
6.21
5.50
4.27
2.83
1.53
0.60
0.06
-0.22
-0.51
-1.02
-1.89
-3.16
-4.71
-6.36
-7.86
-9.01
-9.71
-10.00
-10.12
-10.40
-11.18
-12.62
-14.65
-16.92
-18.88
-19.90
-19.53
-17.56
-14.15
-9.73
-4.97
-0.52
3.12
5.64
7.01
7.34
6.90
5.99
4.89
3.87
3.14
2.83
3.03
3.69
4.67
5.70
6.52
6.95
6.96
6.69
6.36
6.14
6.03
5.89
5.50
4.70
3.51
2.12
0.82
-0.15
-0.74
-1.04
-1.35
-1.97
-3.06
-4.58
-6.31
-7.94
-9.21
-10.02
-10.47
-10.83
-11.38
-12.36
-13.88
-15.85
-18.04
-20.01
-21.27
-21.32
-19.82
-16.69
-12.22
-7.03
-1.89
2.54
5.83
7.94
9.10
9.68
10.03
10.33
10.64
10.89
11.04
11.08
11.08
11.19
11.48
11.98
12.58
13.08
13.32
13.18
12.68
11.94
11.07
10.15
9.17
8.07
6.79
5.33
3.77
2.20
0.71
-0.65
-1.81
-2.78
-3.58
-4.28
-5.05
-6.00
-7.26
-8.80
-10.50
-12.14
-13.49
-14.50
-15.26
-16.02
-17.15
-18.89
-21.32
-24.27
-27.27
-29.65
-30.67
-29.72
-26.50
-21.11
-14.18
-6.61
0.56
6.50
10.78
13.44
14.87
15.62
16.12
16.59
17.01
17.29
17.42
17.51
17.79
18.39
19.29
20.24
20.95
21.20
20.99
20.52
20.00
19.52
18.88
17.77
15.92
13.32
10.28
7.31
4.92
3.37
2.55
2.12
1.59
0.62
-0.90
-2.81
-4.80
-6.59
-8.04
-9.22
-10.36
-11.75
-13.58
-15.86
-18.38
-20.77
-22.68
-23.91
-24.50
-24.81
-25.32
-26.55
-28.76
-31.92
-35.55
-38.79
-40.60
-40.04
-36.61
-30.47
-22.44
-13.77
-5.68
0.97
5.86
9.16
11.25
12.47
13.02
13.00
12.53
11.84
11.25
11.01
11.18
11.64
12.11
12.30
12.08
11.45
10.51
9.41
8.19
6.82
5.25
3.44
1.50
-0.32
-1.74
-2.48
-2.36
-1.40
0.20
2.10
3.89
5.25
5.96
6.08
5.89
5.75
5.98
6.70
7.72
8.62
8.91
8.26
6.60
4.14
1.28
-1.60
-4.21
-6.42
-8.32
-10.08
-11.99
-14.27
-17.04
-20.14
-23.11
-25.23
-25.72
-24.01
-20.01
-14.17
-7.35
-0.58
5.31
9.87
13.06
15.13
16.43
17.27
17.85
18.29
18.67
19.09
19.65
20.39
21.25
22.06
22.62
22.76
22.48
21.88
21.17
20.54
20.05
19.62
19.07
18.20
16.85
15.07
13.00
10.91
9.05
7.58
6.53
5.81
5.26
4.71
4.08
3.39
2.74
2.20
1.70
1.09
0.21
-1.03
-2.53
-4.02
-5.23
-6.04
-6.53
-7.00
-7.83
-9.32
-11.53
-14.31
-17.20
-19.62
-20.92
-20.56
-18.32
-14.32
-9.08
-3.37
2.06
6.63
10.04
12.30
13.59
14.17
14.26
14.03
13.64
13.18
12.75
12.46
12.41
12.70
13.35
14.27
15.23
15.95
16.20
15.96
15.33
14.57
13.90
13.40
13.00
12.59
12.13
11.68
11.39
11.34
11.46
11.53
11.26
10.47
9.11
7.25
5.03
2.53
-0.23
-3.24
-6.37
-9.44
-12.19
-14.33
-15.66
-16.12
-15.84
-15.14
-14.41
-14.08
-14.48
-15.71
-17.56
-19.59
-21.17
-21.68
-20.66
-17.98
-13.84
-8.69
-3.04
2.69
8.27
13.57
18.42
22.43
25.06
25.81
24.54
21.67
18.06
14.70
12.26
10.83
10.03
9.28
8.15
6.60
4.92
3.49
2.56
2.15
2.03
1.87
1.45
0.66
-0.40
-1.56
-2.66
-3.66
-4.64
-5.79
-7.20
-8.78
-10.19
-11.02
-10.94
-9.93
-8.30
-6.60
-5.43
-5.19
-5.95
-7.49
-9.39
-11.16
-12.46
-13.07
-13.04
-12.57
-11.98
-11.68
-11.95
-12.91
-14.37
-15.83
-16.58
-15.97
-13.61
-9.67
-4.80
0.05
4.01
6.59
7.77
7.89
7.40
6.64
5.76
4.83
3.95
3.29
3.07
3.36
4.07
4.90
5.52
5.70
5.42
4.86
4.25
3.76
3.47
3.28
3.02
2.53
1.73
0.68
-0.50
-1.69
-2.82
-3.90
-5.00
-6.19
-7.48
-8.83
-10.10
-11.15
-11.89
-12.27
-12.45
-12.67
-13.27
-14.55
-16.68
-19.53
-22.73
-25.63
-27.45
-27.52
-25.54
-21.63
-16.41
-10.71
-5.36
-0.88
2.58
5.15
7.12
8.63
9.70
10.24
10.22
9.77
9.13
8.58
8.32
8.41
8.73
9.16
9.55
9.86
10.10
10.27
10.33
10.18
9.69
8.76
7.40
5.70
3.80
1.85
-0.05
-1.81
-3.38
-4.69
-5.72
-6.52
-7.28
-8.19
-9.39
-10.88
-12.48
-13.92
-15.03
-15.80
-16.46
-17.39
-18.92
-21.26
-24.35
-27.86
-31.21
-33.69
-34.61
-33.48
-30.25
-25.23
-19.12
-12.72
-6.73
-1.62
2.47
5.63
8.06
9.97
11.53
12.82
13.91
14.87
15.78
16.72
17.74
18.82
19.84
20.69
21.24
21.50
21.54
21.55
21.63
21.80
21.95
21.89
21.41
20.42
18.90
16.97
14.76
12.43
10.13
7.97
6.06
4.41
3.00
1.70
0.38
-1.12
-2.85
-4.71
-6.58
-8.31
-9.85
-11.26
-12.67
-14.24
-16.11
-18.40
-21.18
-24.40
-27.83
-30.91
-32.86
-32.90
-30.53
-25.77
-19.23
-11.87
-4.70
1.57
6.60
10.38
13.05
14.78
15.76
16.18
16.35
16.59
17.10
17.93
18.92
19.84
20.53
21.00
21.35
21.72
22.11
22.42
22.50
22.23
21.64
20.84
19.89
18.81
17.55
16.02
14.22
12.24
10.22
8.24
6.31
4.40
2.47
0.57
-1.19
-2.70
-3.94
-4.99
-6.03
-7.26
-8.81
-10.70
-12.76
-14.78
-16.53
-17.93
-19.08
-20.24
-21.75
-23.92
-26.95
-30.83
-35.21
-39.46
-42.69
-43.95
-42.49
-38.02
-30.86
-21.89
-12.29
-3.22
4.55
10.64
15.11
18.22
20.29
21.57
22.32
22.75
23.12
23.59
24.25
25.03
25.78
26.31
26.53
26.51
26.36
26.24
26.19
26.15
25.91
25.24
24.00
22.17
19.91
17.51
15.25
13.33
11.77
10.43
9.03
7.36
5.32
3.04
0.79
-1.13
-2.60
-3.69
-4.68
-5.91
-7.61
-9.81
-12.37
-15.03
-17.56
-19.81
-21.80
-23.62
-25.52
-27.74
-30.47
-33.74
-37.25
-40.37
-42.18
-41.75
-38.47
-32.26
-23.72
-13.92
-4.12
4.58
11.51
16.43
19.48
20.95
21.21
20.59
19.46
18.20
17.22
16.85
17.28
18.47
20.11
21.81
23.13
23.76
23.64
22.91
21.86
20.76
19.74
18.71
17.46
15.73
13.42
10.61
7.60
4.74
2.29
0.30
-1.42
-3.14
-5.07
-7.24
-9.49
-11.54
-13.20
-14.47
-15.59
-16.95
-18.93
-21.78
-25.47
-29.74
-34.08
-37.78
-40.03
-40.06
-37.32
-31.74
-23.79
-14.43
-4.90
3.69
10.61
15.64
18.95
20.92
21.89
22.09
21.70
20.91
19.97
19.22
18.92
19.19
19.88
20.69
21.25
21.29
20.75
19.75
18.60
17.50
16.54
15.61
14.50
12.97
10.96
8.59
6.15
3.93
2.12
0.69
-0.56
-1.95
-3.73
-5.95
-8.49
-11.02
-13.23
-14.92
-16.09
-16.98
-18.01
-19.60
-22.06
-25.47
-29.63
-33.99
-37.79
-40.08
-40.07
-37.27
-31.71
-23.98
-15.08
-6.22
1.60
7.76
12.13
14.97
16.69
17.69
18.20
18.36
18.30
18.24
18.39
18.94
19.84
20.85
21.57
21.67
21.05
19.89
18.55
17.42
16.72
16.38
16.12
15.62
14.62
13.12
11.33
9.57
8.13
7.14
6.52
6.03
5.40
4.41
2.99
1.23
-0.68
-2.52
-4.13
-5.52
-6.88
-8.47
-10.53
-13.09
-15.91
-18.61
-20.82
-22.41
-23.54
-24.56
-25.90
-27.89
-30.65
-34.11
-37.89
-41.34
-43.53
-43.40
-40.14
-33.52
-24.10
-13.16
-2.24
7.25
14.49
19.35
22.14
23.46
23.86
23.79
23.52
23.24
23.03
22.98
23.13
23.52
24.16
24.95
25.74
26.26
26.30
25.75
24.68
23.31
21.85
20.44
19.07
17.63
16.03
14.26
12.41
10.64
9.08
7.77
6.64
5.55
4.32
2.87
1.21
-0.55
-2.24
-3.74
-5.00
-6.10
-7.24
-8.62
-10.46
-12.78
-15.46
-18.25
-20.83
-22.93
-24.45
-25.50
-26.35
-27.38
-29.01
-31.49
-34.82
-38.59
-41.93
-43.71
-42.74
-38.33
-30.51
-20.16
-8.79
2.03
11.05
17.65
21.83
23.97
24.60
24.25
23.33
22.19
21.15
20.42
20.14
20.31
20.82
21.51
22.17
22.64
22.82
22.69
22.34
21.86
21.31
20.61
19.62
18.20
16.32
14.10
11.81
9.76
8.11
6.87
5.83
4.73
3.35
1.66
-0.19
-1.92
-3.31
-4.26
-4.88
-5.41
-6.08
-7.03
-8.29
-9.77
-11.36
-13.01
-14.68
-16.31
-17.89
-19.38
-20.86
-22.51
-24.59
-27.32
-30.67
-34.26
-37.36
-39.02
-38.39
-34.96
-28.80
-20.58
-11.36
-2.35
5.47
11.51
15.64
18.10
19.24
19.38
18.73
17.43
15.74
14.05
12.83
12.45
13.00
14.20
15.58
16.67
17.23
17.26
16.96
16.49
15.88
15.08
13.96
12.53
10.88
9.13
7.41
5.80
4.30
2.90
1.58
0.35
-0.83
-1.93
-2.95
-3.86
-4.74
-5.69
-6.86
-8.32
-10.05
-11.88
-13.62
-15.06
-16.21
-17.20
-18.31
-19.88
-22.14
-25.14
-28.55
-31.71
-33.73
-33.66
-30.93
-25.49
-17.92
-9.31
-0.91
6.26
11.63
15.11
17.02
17.82
17.90
17.51
16.74
15.61
14.26
12.93
11.91
11.48
11.71
12.44
13.32
13.99
14.23
14.04
13.56
12.99
12.52
12.10
11.61
10.83
9.58
7.81
5.69
3.49
1.53
0.06
-0.87
-1.41
-1.85
-2.54
-3.70
-5.35
-7.31
-9.25
-10.86
-12.05
-12.92
-13.73
-14.81
-16.41
-18.63
-21.43
-24.60
-27.79
-30.51
-32.16
-32.11
-29.92
-25.50
-19.18
-11.71
-4.06
2.86
8.40
12.31
14.71
15.94
16.38
16.32
15.89
15.20
14.39
13.68
13.35
13.53
14.15
14.93
15.48
15.58
15.22
14.62
14.02
13.50
12.99
12.30
11.30
10.00
8.61
7.30
6.16
5.14
4.10
2.94
1.66
0.39
-0.76
-1.73
-2.56
-3.39
-4.36
-5.57
-7.02
-8.67
-10.40
-12.13
-13.76
-15.27
-16.66
-18.00
-19.40
-21.05
-23.14
-25.78
-28.79
-31.66
-33.62
-33.77
-31.51
-26.73
-19.90
-11.95
-3.95
3.20
8.93
13.11
15.86
17.46
18.24
18.48
18.39
18.15
17.86
17.60
17.42
17.38
17.48
17.71
18.02
18.33
18.58
18.68
18.58
18.18
17.44
16.35
14.95
13.33
11.64
9.97
8.41
6.99
5.70
4.51
3.36
2.18
0.92
-0.44
-1.84
-3.17
-4.30
-5.20
-5.91
-6.62
-7.56
-8.92
-10.73
-12.90
-15.22
-17.42
-19.30
-20.79
-22.00
-23.19
-24.68
-26.69
-29.20
-31.86
-33.96
-34.72
-33.39
-29.62
-23.53
-15.77
-7.32
0.76
7.62
12.75
16.10
17.93
18.66
18.70
18.31
17.58
16.60
15.48
14.49
13.92
13.98
14.63
15.61
16.52
17.05
17.07
16.71
16.14
15.48
14.70
13.67
12.32
10.69
9.00
7.49
6.36
5.62
5.15
4.72
4.16
3.34
2.26
0.98
-0.37
-1.63
-2.66
-3.37
-3.81
-4.18
-4.75
-5.73
-7.19
-9.01
-10.92
-12.64
-14.00
-15.01
-15.86
-16.84
-18.21
-20.17
-22.75
-25.75
-28.77
-31.19
-32.29
-31.46
-28.37
-23.12
-16.21
-8.47
-0.85
5.83
11.01
14.49
16.42
17.14
17.08
16.62
15.99
15.36
14.82
14.46
14.37
14.61
15.15
15.89
16.65
17.26
17.62
17.73
17.60
17.25
16.58
15.49
13.86
11.71
9.21
6.65
4.30
2.31
0.74
-0.51
-1.58
-2.56
-3.45
-4.24
-4.95
-5.67
-6.56
-7.75
-9.31
-11.11
-12.92
-14.47
-15.59
-16.26
-16.70
-17.25
-18.26
-19.99
-22.49
-25.54
-28.64
-31.03
-31.87
-30.36
-26.11
-19.31
-10.76
-1.71
6.63
13.28
17.86
20.45
21.43
21.23
20.20
18.64
16.82
15.02
13.57
12.74
12.67
13.30
14.42
15.71
16.83
17.56
17.79
17.59
17.09
16.39
15.58
14.62
13.48
12.12
10.55
8.83
7.01
5.16
3.26
1.32
-0.63
-2.52
-4.27
-5.83
-7.22
-8.52
-9.85
-11.28
-12.85
-14.53
-16.22
-17.84
-19.35
-20.76
-22.21
-23.90
-26.05
-28.77
-31.96
-35.18
-37.71
-38.62
-37.06
-32.52
-25.18
-15.86
-5.89
3.31
10.63
15.62
18.46
19.76
20.20
20.27
20.12
19.72
19.04
18.20
17.49
17.20
17.43
18.08
18.86
19.46
19.69
19.53
19.09
18.52
17.88
17.10
16.08
14.73
13.14
11.44
9.82
8.40
7.16
5.98
4.67
3.08
1.17
-0.98
-3.19
-5.23
-6.93
-8.25
-9.32
-10.34
-11.54
-13.02
-14.74
-16.50
-18.08
-19.39
-20.50
-21.69
-23.28
-25.56
-28.66
-32.36
-36.07
-38.86
-39.65
-37.61
-32.43
-24.56
-15.09
-5.42
3.20
10.01
14.82
17.86
19.54
20.21
20.14
19.56
18.72
17.96
17.55
17.70
18.41
19.51
20.72
21.72
22.27
22.28
21.87
21.23
20.58
20.01
19.43
18.65
17.46
15.77
13.71
11.54
9.51
7.77
6.26
4.78
3.13
1.25
-0.73
-2.54
-3.95
-4.85
-5.36
-5.74
-6.28
-7.23
-8.70
-10.64
-12.86
-15.14
-17.23
-18.96
-20.30
-21.43
-22.71
-24.54
-27.16
-30.45
-33.92
-36.67
-37.70
-36.17
-31.69
-24.49
-15.41
-5.69
3.36
10.68
15.75
18.64
19.84
20.00
19.66
19.07
18.34
17.50
16.72
16.25
16.34
17.04
18.15
19.34
20.23
20.67
20.70
20.47
20.15
19.72
19.05
17.95
16.37
14.38
12.20
10.09
8.25
6.72
5.42
4.21
2.92
1.47
-0.17
-1.91
-3.58
-5.01
-6.11
-6.90
-7.46
-7.99
-8.63
-9.46
-10.44
-11.45
-12.37
-13.15
-13.87
-14.71
-15.92
-17.66
-19.96
-22.62
-25.25
-27.26
-28.06
-27.19
-24.45
-20.02
-14.36
-8.14
-2.06
3.33
7.64
10.69
12.52
13.29
13.33
12.95
12.45
12.04
11.78
11.73
11.85
12.14
12.57
13.12
13.72
14.26
14.65
14.83
14.82
14.59
14.19
13.58
12.71
11.56
10.15
8.57
6.93
5.30
3.70
2.11
0.51
-1.06
-2.48
-3.64
-4.50
-5.16
-5.84
-6.77
-8.06
-9.66
-11.38
-13.00
-14.43
-15.70
-16.97
-18.41
-20.16
-22.30
-24.85
-27.74
-30.76
-33.41
-34.97
-34.54
-31.42
-25.40
-17.00
-7.36
2.09
10.15
16.16
20.13
22.54
23.92
24.67
24.92
24.69
24.08
23.31
22.73
22.58
22.88
23.37
23.74
23.71
23.27
22.56
21.81
21.10
20.30
19.08
17.11
14.23
10.58
6.52
2.51
-1.09
-4.07
-6.47
-8.44
-10.17
-11.71
-13.02
-13.97
-14.47
-14.55
-14.49
-14.64
-15.34
-16.69
-18.53
-20.50
-22.19
-23.38
-24.07
-24.52
-25.11
-26.22
-28.17
-31.07
-34.72
-38.51
-41.42
-42.16
-39.62
-33.26
-23.35
-11.08
1.90
13.87
23.54
30.36
34.43
36.31
36.74
36.34
35.55
34.59
33.56
32.48
31.33
30.02
28.45
26.52
24.19
21.53
18.79
16.27
14.23
12.81
11.92
11.31
10.62
9.60
8.15
6.32
4.31
2.33
0.50
-1.17
-2.80
-4.47
-6.23
-8.02
-9.68
-11.07
-12.17
-13.10
-14.13
-15.51
-17.40
-19.66
-22.03
-24.13
-25.73
-26.82
-27.67
-28.73
-30.46
-33.13
-36.75
-40.92
-44.86
-47.50
-47.71
-44.60
-37.89
-28.10
-16.56
-4.97
5.09
12.67
17.58
20.30
21.54
21.92
21.80
21.35
20.71
20.13
19.91
20.29
21.30
22.76
24.33
25.64
26.48
26.73
26.43
25.66
24.55
23.25
21.83
20.31
18.61
16.62
14.27
11.63
8.83
6.08
3.51
1.19
-0.91
-2.86
-4.69
-6.50
-8.38
-10.42
-12.70
-15.18
-17.69
-20.05
-22.15
-24.04
-25.99
-28.30
-31.25
-35.00
-39.50
-44.44
-49.15
-52.58
-53.46
-50.67
-43.75
-33.24
-20.62
-7.86
3.26
11.70
17.36
20.77
22.69
23.65
23.87
23.44
22.49
21.36
20.51
20.31
20.89
22.06
23.47
24.70
25.49
25.76
25.59
25.10
24.34
23.27
21.74
19.60
16.81
13.52
10.05
6.77
4.03
1.99
0.54
-0.67
-2.10
-4.15
-6.95
-10.33
-13.80
-16.77
-18.86
-20.06
-20.78
-21.75
-23.69
-27.07
-31.85
-37.54
-43.13
-47.43
-49.21
-47.56
-42.17
-33.50
-22.69
-11.31
-0.81
7.79
14.15
18.47
21.24
22.93
23.82
24.08
23.84
23.37
23.03
23.18
23.98
25.35
26.92
28.25
28.93
28.82
28.00
26.72
25.19
23.52
21.66
19.49
16.97
14.13
11.10
7.96
4.74
1.43
-1.97
-5.37
-8.59
-11.46
-13.86
-15.83
-17.54
-19.28
-21.41
-24.30
-28.23
-33.20
-38.79
-44.06
-47.70
-48.43
-45.39
-38.61
-28.96
-17.92
-7.10
2.31
9.70
15.08
18.76
21.13
22.47
22.97
22.82
22.28
21.69
21.34
21.41
21.93
22.74
23.64
24.42
24.93
25.11
24.98
24.56
23.87
22.83
21.34
19.31
16.76
13.80
10.69
7.67
4.85
2.15
-0.66
-3.84
-7.48
-11.45
-15.40
-19.01
-22.10
-24.81
-27.50
-30.65
-34.70
-39.91
-46.21
-53.12
-59.65
-64.39
-65.80
-62.72
-54.82
-42.94
-28.79
-14.52
-1.93
7.96
15.02
19.76
22.90
24.99
26.36
27.21
27.73
28.24
29.10
30.51
32.48
34.69
36.70
38.07
38.60
38.33
37.55
36.60
35.69
34.83
33.83
32.40
30.32
27.52
24.10
20.31
16.48
12.93
9.88
7.42
5.39
3.48
1.25
-1.64
-5.27
-9.46
-13.75
-17.69
-20.97
-23.68
-26.20
-29.06
-32.79
-37.69
-43.78
-50.69
-57.56
-63.08
-65.72
-64.11
-57.58
-46.58
-32.62
-17.91
-4.55
6.07
13.62
18.63
22.00
24.56
26.71
28.47
29.78
30.70
31.48
32.49
33.94
35.78
37.67
39.20
40.06
40.25
39.98
39.57
39.22
38.83
38.13
36.78
34.63
31.78
28.53
25.22
22.13
19.35
16.85
14.51
12.18
9.76
7.25
4.70
2.17
-0.34
-2.93
-5.77
-8.96
-12.49
-16.13
-19.56
-22.56
-25.08
-27.42
-30.01
-33.35
-37.77
-43.34
-49.69
-55.95
-60.84
-62.84
-60.67
-53.77
-42.66
-28.92
-14.68
-1.96
7.96
14.82
19.11
21.69
23.31
24.40
25.13
25.58
25.87
26.22
26.79
27.62
28.57
29.41
29.92
30.00
29.66
28.99
28.11
27.06
25.82
24.30
22.39
20.02
17.21
14.08
10.80
7.57
4.50
1.59
-1.22
-4.02
-6.85
-9.66
-12.37
-14.95
-17.50
-20.25
-23.55
-27.65
-32.59
-37.99
-42.94
-46.17
-46.34
-42.56
-34.81
-24.07
-12.07
-0.67
8.66
15.32
19.53
22.01
23.53
24.57
25.24
25.46
25.20
24.59
23.97
23.72
24.04
24.87
25.87
26.63
26.78
26.20
25.04
23.56
22.05
20.59
19.08
17.29
15.03
12.24
9.05
5.68
2.35
-0.77
-3.59
-6.12
-8.35
-10.36
-12.27
-14.31
-16.79
-20.00
-24.10
-28.98
-34.14
-38.76
-41.82
-42.32
-39.58
-33.49
-24.69
-14.37
-3.98
5.21
12.42
17.47
20.60
22.24
22.75
22.38
21.36
19.93
18.48
17.34
16.75
16.74
17.12
17.66
18.12
18.39
18.43
18.22
17.75
16.94
15.71
13.97
11.72
9.04
6.15
3.32
0.74
-1.54
-3.64
-5.82
-8.28
-11.07
-13.97
-16.66
-18.84
-20.41
-21.57
-22.72
-24.36
-26.91
-30.51
-34.96
-39.61
-43.41
-45.08
-43.53
-38.19
-29.38
-18.29
-6.63
3.89
12.14
17.78
21.20
23.11
24.13
24.51
24.25
23.30
21.81
20.21
19.06
18.69
19.08
19.80
20.32
20.26
19.63
18.69
17.80
17.14
16.56
15.74
14.37
12.31
9.68
6.81
4.07
1.70
-0.16
-1.62
-2.89
-4.23
-5.86
-7.86
-10.14
-12.45
-14.48
-16.04
-17.15
-18.08
-19.25
-21.05
-23.63
-26.85
-30.19
-32.93
-34.23
-33.38
-30.00
-24.13
-16.31
-7.50
1.19
8.74
14.52
18.36
20.53
21.48
21.67
21.40
20.77
19.87
18.76
17.65
16.77
16.29
16.22
16.36
16.40
16.05
15.16
13.85
12.33
10.90
9.68
8.64
7.60
6.38
4.87
3.17
1.47
-0.03
-1.21
-2.13
-2.91
-3.71
-4.64
-5.71
-6.86
-8.01
-9.10
-10.10
-10.99
-11.80
-12.63
-13.65
-15.11
-17.22
-20.06
-23.42
-26.73
-29.23
-30.05
-28.58
-24.63
-18.51
-11.00
-3.11
4.18
10.15
14.43
17.05
18.27
18.42
17.81
16.71
15.31
13.80
12.39
11.23
10.39
9.87
9.60
9.50
9.44
9.35
9.13
8.79
8.39
8.02
7.75
7.51
7.08
6.24
4.84
2.92
0.72
-1.41
-3.23
-4.59
-5.54
-6.24
-6.83
-7.46
-8.24
-9.23
-10.41
-11.72
-13.02
-14.15
-14.99
-15.57
-16.05
-16.71
-17.84
-19.59
-21.82
-24.13
-25.84
-26.21
-24.73
-21.27
-16.13
-9.96
-3.49
2.63
7.94
12.10
14.97
16.44
16.61
15.67
13.99
12.01
10.14
8.72
7.96
7.89
8.43
9.32
10.27
10.97
11.22
11.03
10.56
10.05
9.67
9.42
9.13
8.57
7.58
6.16
4.45
2.66
0.95
-0.58
-1.93
-3.11
-4.08
-4.82
-5.33
-5.72
-6.16
-6.90
-8.05
-9.56
-11.23
-12.76
-13.95
-14.76
-15.41
-16.25
-17.64
-19.74
-22.40
-25.11
-27.15
-27.76
-26.35
-22.73
-17.20
-10.50
-3.58
2.63
7.48
10.75
12.61
13.43
13.61
13.47
13.22
13.00
12.86
12.85
12.98
13.14
13.24
13.18
12.93
12.58
12.26
12.05
11.96
11.87
11.60
10.96
9.91
8.56
7.15
5.90
4.91
4.10
3.23
2.08
0.55
-1.26
-3.12
-4.77
-6.05
-7.04
-7.93
-8.95
-10.27
-11.90
-13.71
-15.52
-17.19
-18.72
-20.16
-21.63
-23.23
-25.03
-27.07
-29.39
-31.92
-34.43
-36.36
-36.89
-35.12
-30.46
-23.00
-13.56
-3.57
5.48
12.47
16.99
19.33
20.16
20.16
19.78
19.19
18.47
17.75
17.28
17.31
17.99
19.23
20.77
22.31
23.60
24.52
25.12
25.43
25.47
25.20
24.49
23.25
21.50
19.36
17.01
14.69
12.51
10.50
8.59
6.69
4.74
2.79
0.99
-0.50
-1.59
-2.31
-2.81
-3.36
-4.15
-5.32
-6.81
-8.43
-9.96
-11.20
-12.14
-12.89
-13.67
-14.69
-16.00
-17.54
-19.08
-20.31
-20.87
-20.50
-19.10
-16.80
-13.94
-10.99
-8.37
-6.34
-4.95
-4.08
-3.59
-3.34
-3.30
-3.40
-3.59
-3.73
-3.67
-3.32
-2.68
-1.86
-0.99
-0.20
0.46
1.04
1.59
2.13
2.60
2.86
2.77
2.28
1.44
0.41
-0.57
-1.39
-2.00
-2.50
-2.97
-3.45
-3.95
-4.50
-5.18
-6.12
-7.38
-8.92
-10.54
-11.99
-13.10
-13.87
-14.52
-15.38
-16.73
-18.69
-21.06
-23.40
-25.09
-25.56
-24.42
-21.59
-17.32
-12.09
-6.49
-1.05
3.88
8.05
11.37
13.77
15.20
15.68
15.31
14.31
12.96
11.58
10.43
9.71
9.46
9.61
9.99
10.39
10.61
10.52
10.08
9.33
8.37
7.28
6.11
4.80
3.22
1.19
-1.48
-4.86
-8.78
-12.90
-16.70
-19.75
-21.79
-22.88
-23.28
-23.23
-22.74
-21.57
-19.35
-15.86
-11.31
-6.29
-1.68
1.72
3.44
3.56
2.53
1.11
0.01
-0.26
0.49
2.15
4.39
6.80
9.08
11.05
12.66
13.92
14.81
15.23
15.10
14.44
13.44
12.41
11.67
11.44
11.76
12.50
13.45
14.48
15.50
16.47
17.34
18.00
18.27
18.03
17.25
16.02
14.51
12.86
11.16
9.38
7.46
5.39
3.21
1.08
-0.81
-2.39
-3.66
-4.81
-6.03
-7.51
-9.28
-11.26
-13.27
-15.15
-16.81
-18.23
-19.50
-20.77
-22.23
-24.08
-26.48
-29.43
-32.68
-35.69
-37.59
-37.50
-34.71
-29.08
-21.13
-11.99
-2.96
4.78
10.64
14.59
17.08
18.65
19.70
20.36
20.63
20.52
20.19
19.95
20.06
20.63
21.52
22.40
22.94
22.90
22.32
21.37
20.34
19.39
18.55
17.69
16.59
15.10
13.19
10.95
8.61
6.37
4.42
2.83
1.58
0.55
-0.36
-1.30
-2.31
-3.42
-4.60
-5.89
-7.31
-8.93
-10.76
-12.72
-14.65
-16.43
-18.00
-19.42
-20.88
-22.57
-24.56
-26.76
-28.84
-30.37
-30.77
-29.55
-26.39
-21.33
-14.82
-7.67
-0.83
4.90
9.11
11.89
13.63
14.82
15.79
16.61
17.19
17.37
17.19
16.82
16.52
16.52
16.87
17.47
18.10
18.50
18.56
18.27
17.71
16.95
16.01
14.81
13.30
11.51
9.63
7.93
6.68
5.95
5.57
5.20
4.48
3.26
1.67
0.08
-1.19
-1.96
-2.41
-2.92
-3.92
-5.66
-8.06
-10.73
-13.18
-15.08
-16.33
-17.16
-17.93
-18.99
-20.52
-22.52
-24.85
-27.25
-29.35
-30.68
-30.65
-28.71
-24.52
-18.23
-10.49
-2.41
4.84
10.36
13.79
15.31
15.49
15.00
14.41
13.96
13.69
13.48
13.28
13.12
13.16
13.52
14.24
15.19
16.15
16.88
17.21
17.12
16.64
15.82
14.68
13.26
11.61
9.89
8.29
6.92
5.80
4.79
3.72
2.49
1.12
-0.24
-1.43
-2.33
-2.99
-3.60
-4.37
-5.47
-6.96
-8.71
-10.52
-12.16
-13.54
-14.71
-15.85
-17.15
-18.77
-20.74
-23.02
-25.43
-27.68
-29.31
-29.74
-28.37
-24.82
-19.13
-11.88
-4.05
3.29
9.30
13.56
16.12
17.28
17.43
16.89
15.88
14.63
13.38
12.40
11.91
11.99
12.62
13.60
14.76
15.95
17.05
17.96
18.51
18.56
17.98
16.76
15.03
13.03
10.99
9.07
7.30
5.62
3.94
2.25
0.64
-0.82
-2.08
-3.15
-4.13
-5.15
-6.31
-7.67
-9.22
-10.90
-12.60
-14.20
-15.61
-16.86
-18.05
-19.37
-21.09
-23.42
-26.45
-30.05
-33.83
-37.09
-38.93
-38.46
-35.06
-28.70
-20.07
-10.39
-1.11
6.58
12.07
15.42
17.14
17.87
18.10
18.07
17.83
17.45
17.10
17.03
17.46
18.45
19.83
21.27
22.45
23.17
23.43
23.35
23.06
22.61
21.88
20.74
19.06
16.92
14.55
12.33
10.60
9.55
9.15
9.11
8.99
8.33
6.84
4.50
1.60
-1.42
-4.21
-6.65
-8.93
-11.35
-14.13
-17.17
-20.10
-22.48
-24.08
-25.03
-25.81
-27.02
-29.09
-32.15
-35.97
-40.03
-43.53
-45.55
-45.17
-41.70
-35.04
-25.79
-15.19
-4.74
4.22
10.98
15.42
17.96
19.14
19.43
19.13
18.47
17.71
17.16
17.13
17.69
18.73
19.93
20.95
21.58
21.77
21.68
21.49
21.29
20.99
20.38
19.27
17.56
15.39
13.04
10.80
8.85
7.19
5.69
4.19
2.67
1.15
-0.26
-1.48
-2.61
-3.78
-5.17
-6.87
-8.87
-11.04
-13.21
-15.23
-17.01
-18.54
-19.89
-21.24
-22.76
-24.67
-27.07
-29.94
-33.03
-35.77
-37.41
-37.05
-34.01
-28.07
-19.67
-9.92
-0.28
7.95
13.97
17.74
19.76
20.73
21.15
21.18
20.72
19.69
18.21
16.67
15.55
15.21
15.70
16.80
18.11
19.24
19.96
20.18
19.92
19.23
18.12
16.59
14.69
12.53
10.29
8.11
6.08
4.20
2.41
0.66
-1.08
-2.76
-4.35
-5.76
-6.92
-7.85
-8.58
-9.26
-10.06
-11.15
-12.57
-14.22
-15.92
-17.45
-18.75
-19.94
-21.29
-23.09
-25.40
-28.02
-30.38
-31.71
-31.24
-28.48
-23.42
-16.52
-8.70
-0.95
5.82
11.05
14.59
16.60
17.39
17.35
16.81
16.03
15.27
14.71
14.50
14.68
15.15
15.66
15.96
15.83
15.23
14.33
13.41
12.72
12.36
12.18
11.82
10.91
9.25
6.88
4.11
1.40
-0.88
-2.51
-3.57
-4.31
-5.05
-6.00
-7.24
-8.68
-10.14
-11.56
-12.90
-14.26
-15.80
-17.65
-19.90
-22.52
-25.32
-27.89
-29.61
-29.81
-27.90
-23.70
-17.52
-10.14
-2.56
4.32
9.97
14.24
17.24
19.17
20.08
19.99
19.00
17.36
15.53
14.04
13.28
13.35
13.98
14.76
15.31
15.42
15.13
14.59
13.95
13.21
12.24
10.85
8.92
6.54
3.97
1.55
-0.41
-1.87
-3.02
-4.25
-5.92
-8.17
-10.85
-13.58
-15.94
-17.63
-18.68
-19.39
-20.20
-21.56
-23.78
-26.96
-30.95
-35.27
-39.15
-41.53
-41.38
-38.02
-31.45
-22.45
-12.35
-2.62
5.60
11.78
16.02
18.77
20.52
21.59
22.13
22.20
21.91
21.55
21.44
21.86
22.84
24.18
25.50
26.39
26.66
26.36
25.73
24.99
24.28
23.51
22.47
20.93
18.71
15.84
12.49
8.97
5.62
2.76
0.45
-1.44
-3.27
-5.47
-8.29
-11.73
-15.51
-19.20
-22.45
-25.08
-27.14
-28.86
-30.54
-32.60
-35.45
-39.47
-44.74
-50.88
-56.88
-61.20
-62.20
-58.74
-50.66
-38.93
-25.39
-12.05
-0.50
8.50
15.04
19.65
22.96
25.39
27.10
28.16
28.71
29.00
29.35
29.97
30.91
31.99
33.00
33.76
34.22
34.50
34.71
34.90
34.95
34.58
33.49
31.56
28.91
25.94
23.09
20.67
18.67
16.81
14.65
11.92
8.65
5.15
1.89
-0.82
-2.94
-4.72
-6.56
-8.82
-11.71
-15.22
-19.14
-23.15
-26.92
-30.12
-32.62
-34.52
-36.14
-38.04
-40.78
-44.63
-49.39
-54.17
-57.51
-57.82
-53.89
-45.46
-33.34
-19.27
-5.29
6.89
16.29
22.84
26.97
29.33
30.44
30.68
30.39
29.94
29.72
30.06
31.03
32.46
34.01
35.27
35.99
36.07
35.62
34.84
33.97
33.17
32.43
31.57
30.34
28.48
25.93
22.86
19.67
16.78
14.48
12.78
11.38
9.88
7.91
5.42
2.58
-0.20
-2.61
-4.49
-6.00
-7.47
-9.30
-11.69
-14.57
-17.61
-20.37
-22.50
-23.92
-24.83
-25.62
-26.75
-28.57
-31.27
-34.79
-38.74
-42.41
-44.75
-44.62
-41.18
-34.24
-24.51
-13.40
-2.60
6.47
13.11
17.33
19.70
20.92
21.50
21.68
21.50
20.97
20.24
19.59
19.32
19.61
20.39
21.37
22.13
22.37
21.99
21.16
20.16
19.18
18.23
17.19
15.87
14.19
12.22
10.15
8.10
6.16
4.29
2.51
0.84
-0.62
-1.81
-2.77
-3.71
-4.86
-6.49
-8.67
-11.34
-14.19
-16.86
-19.07
-20.68
-21.88
-23.02
-24.66
-27.27
-31.05
-35.78
-40.69
-44.58
-46.14
-44.29
-38.65
-29.71
-18.74
-7.39
2.79
10.78
16.29
19.63
21.43
22.32
22.75
22.95
23.03
23.11
23.36
23.90
24.79
25.83
26.74
27.18
27.00
26.30
25.35
24.48
23.80
23.21
22.40
21.07
19.12
16.67
14.03
11.49
9.22
7.23
5.41
3.61
1.73
-0.27
-2.33
-4.36
-6.27
-8.02
-9.66
-11.33
-13.16
-15.24
-17.50
-19.74
-21.70
-23.21
-24.36
-25.44
-26.90
-29.16
-32.41
-36.48
-40.76
-44.30
-45.90
-44.47
-39.46
-31.03
-20.20
-8.57
2.16
10.73
16.63
20.09
21.84
22.66
23.08
23.30
23.28
23.00
22.55
22.20
22.20
22.70
23.58
24.56
25.25
25.42
25.03
24.31
23.56
22.95
22.42
21.65
20.27
18.06
15.13
11.92
8.93
6.55
4.87
3.64
2.46
0.98
-0.92
-3.06
-5.15
-6.91
-8.26
-9.36
-10.52
-12.01
-13.96
-16.28
-18.77
-21.19
-23.42
-25.50
-27.57
-29.82
-32.43
-35.53
-39.17
-43.25
-47.36
-50.69
-52.13
-50.50
-45.06
-35.92
-24.10
-11.36
0.40
9.78
16.24
20.06
22.05
23.01
23.47
23.64
23.53
23.20
22.90
22.94
23.58
24.83
26.47
28.12
29.43
30.20
30.44
30.26
29.75
28.91
27.63
25.79
23.37
20.55
17.58
14.74
12.16
9.80
7.51
5.13
2.67
0.25
-1.93
-3.71
-5.08
-6.17
-7.23
-8.49
-10.14
-12.24
-14.76
-17.59
-20.53
-23.35
-25.85
-27.93
-29.68
-31.44
-33.73
-37.06
-41.63
-47.04
-52.17
-55.39
-55.03
-50.02
-40.42
-27.47
-13.27
0.01
10.76
18.38
23.14
25.83
27.22
27.80
27.75
27.11
26.03
24.82
23.89
23.55
23.90
24.78
25.82
26.69
27.14
27.11
26.65
25.86
24.76
23.32
21.45
19.10
16.32
13.28
10.18
7.16
4.31
1.64
-0.83
-3.04
-4.94
-6.48
-7.77
-9.02
-10.50
-12.37
-14.63
-17.06
-19.32
-21.14
-22.46
-23.48
-24.62
-26.31
-28.87
-32.42
-36.74
-41.33
-45.32
-47.62
-47.13
-43.02
-35.21
-24.40
-12.07
0.02
10.36
18.09
23.13
25.99
27.34
27.70
27.33
26.34
24.87
23.24
21.86
21.18
21.41
22.46
23.96
25.41
26.35
26.53
25.94
24.75
23.27
21.72
20.19
18.63
16.85
14.64
11.91
8.72
5.29
1.97
-0.97
-3.40
-5.36
-7.06
-8.77
-10.73
-12.98
-15.48
-18.05
-20.46
-22.51
-24.12
-25.34
-26.41
-27.70
-29.64
-32.57
-36.59
-41.41
-46.28
-50.00
-51.20
-48.70
-41.97
-31.45
-18.54
-5.23
6.56
15.54
21.37
24.54
25.98
26.55
26.73
26.66
26.29
25.69
25.11
24.88
25.25
26.22
27.49
28.64
29.33
29.41
28.99
28.25
27.35
26.28
24.90
23.03
20.62
17.77
14.71
11.69
8.81
6.08
3.39
0.70
-1.94
-4.41
-6.54
-8.26
-9.67
-11.03
-12.67
-14.87
-17.67
-20.88
-24.17
-27.14
-29.55
-31.38
-32.83
-34.29
-36.20
-38.98
-42.92
-47.94
-53.38
-57.97
-60.01
-57.88
-50.74
-38.93
-24.08
-8.60
5.17
15.70
22.59
26.42
28.20
28.87
28.96
28.65
28.03
27.26
26.68
26.64
27.34
28.69
30.37
31.89
32.86
33.12
32.71
31.87
30.85
29.76
28.55
27.09
25.22
22.89
20.22
17.41
14.67
12.09
9.68
7.32
4.93
2.45
-0.06
-2.48
-4.73
-6.79
-8.81
-10.97
-13.42
-16.16
-19.01
-21.68
-23.92
-25.64
-27.00
-28.41
-30.39
-33.40
-37.65
-42.88
-48.23
-52.34
-53.63
-50.81
-43.45
-32.23
-18.79
-5.26
6.49
15.39
21.25
24.55
26.02
26.25
25.57
24.26
22.65
21.25
20.60
21.02
22.45
24.43
26.26
27.41
27.63
27.07
26.10
25.06
24.10
23.09
21.86
20.28
18.36
16.27
14.09
11.85
9.47
6.92
4.23
1.55
-0.92
-3.05
-4.84
-6.42
-7.98
-9.70
-11.67
-13.92
-16.34
-18.75
-20.94
-22.76
-24.24
-25.68
-27.52
-30.21
-34.00
-38.70
-43.60
-47.58
-49.25
-47.48
-41.70
-32.26
-20.38
-7.84
3.55
12.52
18.62
22.20
24.01
24.81
25.05
24.86
24.26
23.41
22.61
22.27
22.64
23.70
25.12
26.44
27.30
27.53
27.21
26.47
25.46
24.23
22.78
21.06
19.11
16.93
14.57
12.04
9.34
6.51
3.68
1.00
-1.34
-3.31
-4.94
-6.47
-8.15
-10.18
-12.59
-15.27
-17.98
-20.49
-22.64
-24.44
-25.99
-27.50
-29.16
-31.30
-34.21
-38.10
-42.79
-47.51
-50.90
-51.31
-47.49
-39.15
-27.29
-13.86
-1.13
9.19
16.39
20.76
23.13
24.39
25.10
25.43
25.45
25.28
25.19
25.45
26.20
27.28
28.36
29.05
29.12
28.62
27.80
27.00
26.39
25.91
25.27
24.11
22.23
19.70
16.86
14.12
11.79
9.92
8.29
6.58
4.58
2.32
-0.02
-2.18
-4.07
-5.79
-7.54
-9.55
-11.84
-14.29
-16.65
-18.72
-20.41
-21.80
-23.07
-24.43
-26.09
-28.28
-31.24
-35.08
-39.66
-44.41
-48.29
-50.01
-48.40
-42.83
-33.55
-21.69
-9.00
2.70
12.05
18.46
22.16
23.84
24.35
24.30
24.01
23.55
22.99
22.48
22.28
22.60
23.44
24.58
25.63
26.27
26.37
26.06
25.60
25.18
24.80
24.24
23.19
21.47
19.10
16.37
13.66
11.31
9.41
7.85
6.34
4.60
2.54
0.26
-1.95
-3.81
-5.16
-6.12
-6.98
-8.13
-9.83
-12.16
-14.94
-17.85
-20.53
-22.68
-24.19
-25.17
-25.95
-26.99
-28.80
-31.66
-35.52
-39.75
-43.26
-44.69
-42.87
-37.29
-28.34
-17.26
-5.74
4.62
12.77
18.35
21.68
23.32
23.88
23.77
23.26
22.56
21.89
21.47
21.43
21.76
22.26
22.69
22.82
22.55
21.91
21.05
20.16
19.35
18.65
17.96
17.11
15.99
14.51
12.67
10.55
8.25
5.88
3.57
1.45
-0.42
-1.99
-3.33
-4.51
-5.68
-6.97
-8.50
-10.35
-12.50
-14.79
-16.94
-18.62
-19.67
-20.14
-20.41
-20.98
-22.36
-24.80
-28.19
-32.00
-35.36
-37.29
-36.86
-33.51
-27.24
-18.69
-9.04
0.37
8.36
14.28
18.04
19.98
20.62
20.39
19.57
18.30
16.76
15.19
13.96
13.41
13.68
14.67
16.00
17.24
18.01
18.15
17.74
17.00
16.15
15.30
14.39
13.32
11.95
10.26
8.33
6.27
4.21
2.29
0.59
-0.84
-2.07
-3.22
-4.45
-5.93
-7.73
-9.83
-12.09
-14.30
-16.32
-18.06
-19.54
-20.85
-22.12
-23.51
-25.26
-27.59
-30.63
-34.19
-37.60
-39.82
-39.60
-36.06
-29.05
-19.37
-8.51
1.82
10.24
16.13
19.63
21.31
21.86
21.75
21.21
20.33
19.26
18.22
17.46
17.19
17.42
17.98
18.65
19.18
19.44
19.39
19.09
18.60
17.98
17.20
16.22
14.95
13.34
11.34
9.04
6.61
4.23
2.10
0.27
-1.28
-2.67
-4.02
-5.43
-6.91
-8.47
-10.09
-11.75
-13.46
-15.18
-16.90
-18.61
-20.33
-22.11
-24.06
-26.36
-29.16
-32.56
-36.47
-40.48
-43.80
-45.36
-44.10
-39.40
-31.38
-20.94
-9.64
0.91
9.52
15.71
19.69
22.06
23.47
24.32
24.78
24.84
24.55
24.07
23.68
23.65
24.07
24.86
25.78
26.55
26.95
26.89
26.39
25.53
24.41
23.07
21.51
19.73
17.74
15.61
13.43
11.26
9.15
7.04
4.84
2.48
-0.05
-2.63
-5.07
-7.15
-8.79
-10.08
-11.26
-12.62
-14.38
-16.57
-19.00
-21.37
-23.43
-25.08
-26.43
-27.80
-29.62
-32.23
-35.77
-39.98
-44.18
-47.25
-47.93
-45.20
-38.71
-29.02
-17.50
-5.97
3.97
11.35
16.06
18.62
19.83
20.34
20.52
20.46
20.22
19.94
19.81
20.05
20.68
21.59
22.53
23.26
23.66
23.76
23.68
23.53
23.36
23.07
22.44
21.27
19.50
17.21
14.67
12.19
9.95
7.98
6.17
4.40
2.61
0.87
-0.73
-2.11
-3.39
-4.77
-6.46
-8.51
-10.80
-13.09
-15.18
-17.01
-18.72
-20.53
-22.70
-25.39
-28.76
-32.85
-37.59
-42.53
-46.77
-48.99
-47.90
-42.79
-33.94
-22.67
-10.84
-0.19
8.28
14.44
18.74
21.73
23.70
24.65
24.45
23.15
21.11
18.90
17.10
16.09
15.95
16.51
17.39
18.22
18.69
18.61
17.99
16.98
15.79
14.59
13.48
12.40
11.23
9.84
8.16
6.27
4.32
2.51
0.98
-0.13
-0.73
-0.79
-0.29
0.61
1.63
2.35
2.36
1.38
-0.53
-3.06
-5.70
-8.02
-9.79
-11.09
-12.23
-13.59
-15.44
-17.81
-20.46
-22.95
-24.75
-25.43
-24.78
-22.82
-19.78
-16.03
-11.99
-8.03
-4.45
-1.43
0.97
2.73
3.93
4.70
5.23
5.75
6.47
7.55
9.00
10.65
12.25
13.52
14.30
14.56
14.44
14.21
14.09
14.19
14.47
14.71
14.60
13.96
12.75
11.18
9.56
8.19
7.20
6.50
5.91
5.19
4.27
3.21
2.18
1.31
0.59
-0.06
-0.78
-1.72
-2.90
-4.32
-5.92
-7.64
-9.43
-11.23
-12.95
-14.51
-15.87
-17.11
-18.42
-20.01
-22.00
-24.20
-26.14
-27.10
-26.43
-23.69
-18.98
-12.82
-6.10
0.25
5.56
9.52
12.25
14.04
15.23
16.01
16.44
16.50
16.24
15.82
15.48
15.40
15.56
15.81
15.91
15.71
15.30
14.89
14.73
14.91
15.28
15.54
15.37
14.56
13.12
11.25
9.22
7.31
5.70
4.45
3.43
2.46
1.29
-0.19
-1.89
-3.53
-4.80
-5.48
-5.62
-5.51
-5.54
-5.99
-6.91
-8.13
-9.39
-10.50
-11.43
-12.31
-13.26
-14.37
-15.62
-16.96
-18.42
-20.09
-22.03
-24.10
-25.90
-26.80
-26.15
-23.57
-19.13
-13.33
-6.98
-0.90
4.28
8.27
11.08
12.90
13.98
14.52
14.68
14.56
14.27
13.95
13.79
13.93
14.46
15.28
16.19
16.92
17.26
17.14
16.63
15.94
15.26
14.70
14.19
13.59
12.73
11.50
9.98
8.35
6.85
5.67
4.81
4.13
3.42
2.48
1.29
-0.05
-1.35
-2.42
-3.17
-3.65
-4.05
-4.63
-5.57
-6.96
-8.65
-10.38
-11.86
-12.98
-13.77
-14.50
-15.53
-17.17
-19.53
-22.45
-25.46
-27.91
-29.09
-28.45
-25.76
-21.20
-15.34
-8.99
-2.98
2.01
5.66
7.96
9.15
9.62
9.69
9.55
9.26
8.81
8.30
7.88
7.78
8.14
8.93
9.92
10.83
11.44
11.68
11.66
11.49
11.24
10.84
10.21
9.29
8.14
6.92
5.83
4.97
4.33
3.76
3.06
2.08
0.77
-0.77
-2.37
-3.80
-4.95
-5.84
-6.56
-7.29
-8.14
-9.14
-10.25
-11.41
-12.55
-13.70
-14.89
-16.20
-17.72
-19.53
-21.71
-24.17
-26.62
-28.48
-29.03
-27.60
-23.91
-18.26
-11.46
-4.57
1.45
6.09
9.28
11.30
12.49
13.09
13.22
12.95
12.37
11.70
11.15
10.90
11.00
11.35
11.82
12.27
12.63
12.85
12.94
12.88
12.64
12.19
11.54
10.69
9.72
8.68
7.62
6.57
5.52
4.45
3.29
2.03
0.67
-0.70
-2.00
-3.15
-4.13
-5.05
-6.05
-7.23
-8.66
-10.24
-11.84
-13.29
-14.52
-15.60
-16.73
-18.20
-20.26
-22.91
-25.84
-28.39
-29.71
-29.05
-25.99
-20.71
-13.90
-6.55
0.34
6.10
10.42
13.38
15.26
16.33
16.81
16.82
16.47
15.90
15.31
14.85
14.63
14.63
14.80
15.06
15.35
15.62
15.79
15.78
15.51
14.96
14.14
13.11
11.92
10.58
9.10
7.48
5.80
4.16
2.68
1.40
0.29
-0.67
-1.52
-2.28
-2.95
-3.60
-4.36
-5.39
-6.78
-8.49
-10.33
-12.08
-13.58
-14.86
-16.07
-17.50
-19.39
-21.88
-24.91
-28.19
-31.22
-33.29
-33.64
-31.68
-27.22
-20.64
-12.86
-5.00
1.93
7.41
11.42
14.27
16.31
17.71
18.42
18.35
17.58
16.42
15.31
14.66
14.64
15.14
15.88
16.61
17.15
17.51
17.71
17.79
17.70
17.35
16.66
15.61
14.27
12.73
11.04
9.25
7.41
5.54
3.73
2.09
0.71
-0.41
-1.33
-2.17
-3.06
-4.09
-5.33
-6.79
-8.40
-10.09
-11.78
-13.41
-14.97
-16.48
-18.03
-19.69
-21.57
-23.70
-26.04
-28.37
-30.23
-30.97
-29.93
-26.65
-21.17
-14.09
-6.42
0.72
6.46
10.49
12.96
14.38
15.24
15.86
16.30
16.43
16.16
15.56
14.85
14.33
14.20
14.47
14.98
15.44
15.63
15.44
14.93
14.23
13.47
12.69
11.84
10.83
9.57
8.03
6.26
4.38
2.55
0.93
-0.39
-1.38
-2.08
-2.57
-2.98
-3.43
-4.04
-4.88
-5.99
-7.35
-8.87
-10.43
-11.94
-13.39
-14.88
-16.57
-18.65
-21.22
-24.23
-27.37
-30.06
-31.59
-31.21
-28.45
-23.28
-16.21
-8.20
-0.37
6.33
11.35
14.54
16.16
16.64
16.39
15.76
14.97
14.14
13.38
12.78
12.49
12.62
13.21
14.14
15.15
15.96
16.31
16.14
15.52
14.61
13.56
12.38
11.03
9.49
7.78
6.04
4.43
3.04
1.84
0.72
-0.45
-1.75
-3.16
-4.61
-6.05
-7.45
-8.80
-10.13
-11.42
-12.63
-13.72
-14.68
-15.55
-16.42
-17.47
-18.91
-20.93
-23.60
-26.71
-29.76
-31.97
-32.50
-30.69
-26.33
-19.83
-12.06
-4.14
2.94
8.56
12.53
15.05
16.45
17.07
17.17
16.98
16.69
16.51
16.58
16.95
17.54
18.19
18.72
19.06
19.22
19.28
19.27
19.15
18.81
18.15
17.11
15.72
14.07
12.30
10.54
8.91
7.42
6.05
4.68
3.18
1.50
-0.30
-2.05
-3.53
-4.58
-5.23
-5.71
-6.33
-7.34
-8.85
-10.75
-12.83
-14.88
-16.78
-18.45
-19.93
-21.33
-22.82
-24.63
-26.96
-29.82
-32.86
-35.37
-36.38
-35.01
-30.81
-24.01
-15.47
-6.42
1.95
8.79
13.71
16.76
18.26
18.63
18.36
17.80
17.30
17.05
17.12
17.49
18.05
18.67
19.24
19.64
19.76
19.53
18.98
18.22
17.39
16.65
16.02
15.37
14.52
13.28
11.60
9.58
7.40
5.27
3.30
1.56
0.06
-1.19
-2.20
-3.00
-3.68
-4.43
-5.37
-6.60
-8.11
-9.83
-11.63
-13.44
-15.21
-16.91
-18.57
-20.24
-22.11
-24.41
-27.33
-30.82
-34.46
-37.42
-38.64
-37.20
-32.68
-25.38
-16.27
-6.71
2.00
8.95
13.81
16.74
18.22
18.76
18.77
18.48
18.01
17.51
17.14
17.06
17.39
18.06
18.88
19.56
19.83
19.58
18.83
17.79
16.69
15.74
14.99
14.40
13.74
12.77
11.30
9.27
6.79
4.16
1.73
-0.22
-1.55
-2.34
-2.84
-3.40
-4.34
-5.83
-7.81
-9.99
-12.00
-13.55
-14.54
-15.15
-15.72
-16.69
-18.37
-20.87
-23.99
-27.32
-30.17
-31.80
-31.48
-28.82
-23.82
-17.00
-9.26
-1.60
5.12
10.43
14.23
16.70
18.06
18.54
18.30
17.52
16.40
15.23
14.27
13.76
13.75
14.11
14.63
15.00
15.01
14.64
14.03
13.41
12.96
12.66
12.27
11.45
9.95
7.77
5.19
2.63
0.48
-1.11
-2.27
-3.28
-4.36
-5.68
-7.23
-8.92
-10.64
-12.31
-13.84
-15.16
-16.18
-16.94
-17.65
-18.65
-20.33
-22.95
-26.39
-30.07
-33.04
-34.22
-32.77
-28.43
-21.61
-13.34
-4.83
2.81
8.94
13.40
16.42
18.30
19.27
19.47
19.01
18.09
17.03
16.13
15.66
15.65
16.00
16.53
17.06
17.44
17.63
17.61
17.36
16.90
16.19
15.21
13.94
12.38
10.55
8.52
6.37
4.21
2.19
0.42
-1.05
-2.26
-3.37
-4.61
-6.17
-8.12
-10.34
-12.57
-14.49
-15.94
-16.92
-17.68
-18.56
-19.87
-21.88
-24.69
-28.30
-32.46
-36.61
-39.86
-41.13
-39.45
-34.36
-26.23
-16.18
-5.69
3.77
11.29
16.59
19.95
21.88
22.87
23.23
23.15
22.76
22.17
21.56
21.11
20.90
20.98
21.27
21.62
21.84
21.83
21.52
20.95
20.17
19.16
17.90
16.33
14.45
12.31
10.01
7.65
5.27
2.95
0.72
-1.30
-3.03
-4.44
-5.57
-6.59
-7.72
-9.13
-10.90
-12.99
-15.21
-17.34
-19.17
-20.60
-21.78
-23.00
-24.69
-27.25
-30.89
-35.49
-40.51
-45.02
-47.87
-47.96
-44.57
-37.67
-27.94
-16.72
-5.51
4.35
12.06
17.48
20.92
22.93
24.03
24.53
24.64
24.50
24.30
24.25
24.58
25.38
26.59
27.98
29.23
30.00
30.11
29.52
28.38
26.95
25.44
23.92
22.25
20.25
17.74
14.80
11.64
8.64
6.08
4.02
2.36
0.86
-0.67
-2.27
-3.85
-5.33
-6.72
-8.15
-9.81
-11.77
-13.94
-16.12
-18.02
-19.51
-20.66
-21.74
-23.11
-25.17
-28.13
-32.01
-36.49
-40.97
-44.49
-45.96
-44.38
-39.25
-30.83
-20.14
-8.75
1.72
10.09
15.89
19.34
21.07
21.77
21.89
21.69
21.26
20.69
20.21
20.03
20.34
21.16
22.27
23.36
24.05
24.04
23.27
21.91
20.27
18.69
17.37
16.27
15.22
13.99
12.38
10.36
8.02
5.54
3.13
0.96
-0.86
-2.37
-3.73
-5.20
-7.02
-9.30
-11.93
-14.63
-17.02
-18.89
-20.18
-21.13
-22.13
-23.63
-26.00
-29.42
-33.78
-38.59
-42.88
-45.37
-44.78
-40.29
-31.96
-20.78
-8.45
3.20
12.76
19.59
23.81
25.92
26.55
26.15
25.01
23.44
21.78
20.45
19.82
20.06
21.01
22.29
23.42
23.99
23.83
22.98
21.68
20.24
18.90
17.76
16.70
15.48
13.86
11.72
9.16
6.50
4.11
2.29
1.14
0.49
0.04
-0.57
-1.55
-2.97
-4.73
-6.70
-8.74
-10.75
-12.63
-14.36
-16.00
-17.71
-19.77
-22.40
-25.71
-29.43
-32.96
-35.38
-35.78
-33.50
-28.44
-21.13
-12.58
-4.02
3.54
9.45
13.63
16.30
17.88
18.74
19.14
19.20
19.01
18.70
18.41
18.25
18.25
18.33
18.36
18.20
17.79
17.18
16.47
15.81
15.28
14.89
14.54
14.04
13.19
11.86
10.06
7.91
5.64
3.50
1.64
0.14
-1.02
-1.93
-2.70
-3.50
-4.46
-5.75
-7.49
-9.68
-12.21
-14.81
-17.16
-19.04
-20.39
-21.38
-22.34
-23.69
-25.79
-28.81
-32.60
-36.67
-40.15
-41.94
-40.97
-36.68
-29.16
-19.35
-8.72
1.20
9.29
15.10
18.75
20.76
21.65
21.83
21.57
21.09
20.65
20.48
20.74
21.39
22.19
22.87
23.21
23.16
22.81
22.33
21.82
21.27
20.55
19.52
18.12
16.41
14.55
12.71
11.00
9.40
7.83
6.22
4.58
2.97
1.50
0.26
-0.73
-1.51
-2.17
-2.85
-3.67
-4.75
-6.19
-7.99
-10.07
-12.22
-14.19
-15.78
-16.95
-17.84
-18.78
-20.17
-22.35
-25.40
-29.01
-32.46
-34.73
-34.82
-32.06
-26.40
-18.53
-9.67
-1.22
5.67
10.47
13.26
14.58
15.06
15.14
15.02
14.69
14.17
13.58
13.17
13.14
13.55
14.26
15.02
15.61
15.95
16.10
16.14
16.12
15.94
15.47
14.55
13.16
11.39
9.36
7.19
4.97
2.76
0.66
-1.23
-2.80
-4.02
-4.98
-5.90
-6.99
-8.41
-10.17
-12.10
-13.96
-15.54
-16.74
-17.61
-18.33
-19.15
-20.34
-22.14
-24.69
-27.89
-31.31
-34.19
-35.58
-34.65
-30.96
-24.70
-16.65
-7.91
0.40
7.43
12.77
16.42
18.61
19.68
19.90
19.49
18.64
17.57
16.53
15.78
15.49
15.65
16.05
16.39
16.41
16.01
15.28
14.41
13.61
12.90
12.17
11.18
9.67
7.49
4.69
1.49
-1.74
-4.56
-6.67
-8.01
-8.77
-9.40
-10.36
-11.97
-14.19
-16.74
-19.18
-21.12
-22.48
-23.46
-24.49
-25.97
-28.19
-31.19
-34.76
-38.43
-41.54
-43.27
-42.73
-39.27
-32.76
-23.73
-13.32
-2.96
6.05
12.95
17.60
20.35
21.72
22.16
21.92
21.11
19.83
18.36
17.04
16.27
16.29
17.07
18.35
19.75
20.85
21.38
21.24
20.47
19.21
17.59
15.71
13.68
11.55
9.36
7.12
4.82
2.50
0.24
-1.83
-3.59
-5.04
-6.33
-7.72
-9.46
-11.65
-14.16
-16.71
-18.99
-20.84
-22.34
-23.76
-25.45
-27.68
-30.59
-34.18
-38.29
-42.54
-46.36
-48.88
-49.09
-46.16
-39.71
-30.11
-18.45
-6.22
5.05
14.33
21.25
26.07
29.41
31.96
34.16
36.18
38.02
39.64
41.06
42.38
43.66
44.86
45.77
46.07
45.50
43.98
41.64
38.82
35.90
33.13
30.57
28.09
25.54
22.79
19.84
16.82
13.89
11.19
8.78
6.67
4.78
3.10
1.57
0.14
-1.25
-2.74
-4.40
-6.31
-8.43
-10.65
-12.77
-14.60
-16.04
-17.15
-18.21
-19.60
-21.70
-24.68
-28.34
-32.15
-35.25
-36.76
-35.98
-32.67
-27.15
-20.22
-12.90
-6.15
-0.60
3.54
6.43
8.37
9.65
10.43
10.74
10.58
10.07
9.43
9.05
9.19
10.01
11.44
13.25
15.17
16.99
18.58
19.88
20.86
21.48
21.70
21.49
20.86
19.82
18.36
16.49
14.26
11.83
9.41
7.24
5.48
4.10
2.96
1.81
0.44
-1.25
-3.22
-5.29
-7.27
-8.94
-10.20
-11.11
-11.89
-12.83
-14.21
-16.20
-18.80
-21.79
-24.75
-27.06
-28.07
-27.22
-24.30
-19.51
-13.50
-7.14
-1.26
3.55
7.04
9.29
10.53
11.05
11.10
10.86
10.52
10.18
9.97
9.87
9.87
9.90
9.92
9.94
9.97
10.02
10.06
10.09
10.09
10.04
9.87
9.47
8.72
7.52
5.96
4.24
2.67
1.52
0.89
0.57
0.20
-0.60
-2.03
-3.99
-6.15
