1607663549.00
64.000000
-0.00
-0.00
-0.00
-0.00
-0.00
-0.00
-0.00
-0.00
-0.00
-0.00
0.00
0.01
0.01
-0.00
-0.03
-0.05
-0.05
0.00
0.13
0.36
0.66
1.01
1.37
1.72
2.06
2.40
2.79
3.24
3.80
4.42
5.06
5.66
6.20
6.68
7.15
7.68
8.31
9.14
10.09
11.04
11.88
12.56
13.14
13.76
14.65
15.96
17.91
20.32
22.90
25.38
27.58
29.57
31.68
34.32
37.81
42.54
48.15
54.10
59.83
64.97
69.58
74.14
79.34
85.71
93.76
103.00
112.62
121.73
129.77
136.75
143.30
150.75
157.77
166.64
177.95
191.79
206.97
220.57
228.25
225.36
208.53
176.87
132.76
80.05
23.07
-34.94
-92.44
-149.16
-205.23
-260.37
-313.74
-363.87
-409.83
-450.91
-486.50
-515.74
-537.23
-549.22
-549.96
-538.37
-514.21
-478.67
-433.88
-382.45
-327.02
-269.84
-212.63
-156.66
-102.95
-52.37
-5.90
35.58
71.43
101.35
125.50
144.38
158.69
169.15
176.37
180.75
182.57
182.07
179.51
175.23
169.65
163.18
156.15
148.81
141.30
133.69
126.02
118.33
110.69
103.16
95.80
88.68
81.83
75.25
68.95
62.95
57.25
51.86
46.78
42.03
37.59
33.45
29.61
26.07
22.81
19.83
17.11
14.67
12.48
10.54
8.83
7.35
6.07
4.97
4.05
3.27
2.62
2.09
1.65
1.30
1.01
0.79
0.61
0.48
0.37
0.29
0.24
0.21
0.19
0.18
0.18
0.20
0.22
0.25
0.28
0.32
0.36
0.40
0.45
0.49
0.54
0.59
0.64
0.70
0.76
0.82
0.89
0.97
1.05
1.15
1.25
1.37
1.50
1.64
1.81
1.99
2.20
2.42
2.68
2.95
3.26
3.59
3.96
4.36
4.80
5.27
5.78
6.33
6.92
7.55
8.23
8.95
9.71
10.52
11.37
12.27
13.22
14.21
15.28
16.40
17.59
18.83
20.11
21.38
22.59
23.64
24.44
24.87
24.80
24.13
22.77
20.68
17.87
14.43
10.42
6.05
1.51
-2.99
-7.24
-11.04
-14.25
-16.75
-18.48
-19.46
-19.71
-19.36
-18.54
-17.40
-16.05
-14.57
-13.03
-11.41
-9.73
-7.97
-6.19
-4.43
-2.75
-1.12
0.47
2.06
3.73
5.56
7.61
9.74
11.86
13.90
15.82
17.67
19.55
21.62
24.01
26.85
29.86
32.77
35.40
37.66
39.65
41.59
43.81
46.62
50.23
54.08
57.70
60.64
62.70
63.99
64.89
65.93
67.55
69.96
72.32
73.74
73.38
70.60
65.15
56.89
45.51
29.96
13.20
-4.30
-22.62
-42.22
-63.83
-88.19
-115.71
-145.71
-175.98
-202.68
-222.02
-230.85
-228.06
-215.30
-196.27
-175.33
-155.80
-139.15
-125.03
-112.85
-102.03
-92.62
-85.06
-79.72
-76.47
-74.87
-74.41
-74.89
-76.58
-79.38
-82.32
-83.49
-80.48
-71.30
-55.27
-33.43
-8.22
17.16
40.02
58.75
72.91
82.87
89.31
92.87
94.11
93.54
91.76
89.48
87.40
85.98
85.35
85.27
85.34
85.12
84.36
83.02
81.13
78.69
75.50
71.26
65.70
58.83
51.04
43.08
35.72
29.51
24.44
20.03
15.58
10.45
4.40
-2.32
-9.09
-15.30
-20.55
-24.90
-28.79
-32.91
-38.04
-44.72
-53.15
-62.96
-73.04
-81.57
-86.33
-85.29
-77.34
-62.84
-43.59
-22.35
-1.88
15.77
29.77
40.22
47.72
52.88
56.06
57.47
57.37
56.30
54.96
54.07
54.06
55.00
56.57
58.23
59.41
59.72
59.02
57.45
55.28
52.77
50.01
46.87
43.05
38.36
32.84
26.88
21.13
16.20
12.41
9.61
7.20
4.43
0.71
-4.14
-9.80
-15.64
-21.02
-25.58
-29.41
-32.96
-36.89
-41.85
-48.28
-56.28
-65.54
-75.20
-83.83
-89.57
-90.56
-85.50
-74.19
-57.72
-38.21
-18.25
-0.11
14.79
26.00
33.79
38.80
41.63
42.75
42.54
41.43
39.96
38.75
38.32
38.92
40.44
42.46
44.42
45.79
46.30
45.92
44.77
43.00
40.67
37.72
34.05
29.68
24.86
19.96
15.45
11.65
8.60
6.06
3.58
0.70
-2.85
-7.11
-11.86
-16.71
-21.24
-25.20
-28.52
-31.44
-34.46
-38.16
-43.10
-49.62
-57.53
-66.00
-73.58
-78.41
-78.78
-73.63
-62.98
-48.01
-30.71
-13.33
2.21
14.75
23.91
29.91
33.22
34.37
33.84
32.19
30.07
28.24
27.34
27.77
29.44
31.85
34.33
36.20
37.12
37.05
36.25
34.98
33.42
31.54
29.17
26.16
22.44
18.15
13.59
9.12
4.97
1.17
-2.51
-6.43
-10.92
-16.00
-21.43
-26.68
-31.30
-35.08
-38.16
-40.99
-44.22
-48.42
-54.03
-61.14
-69.39
-77.78
-84.70
-88.18
-86.43
-78.56
-64.99
-47.42
-28.35
-10.23
5.21
17.30
26.17
32.34
36.31
38.43
38.98
38.36
37.17
36.10
35.75
36.38
37.88
39.79
41.53
42.60
42.72
41.92
40.40
38.49
36.36
34.01
31.29
27.96
23.93
19.35
14.59
10.16
6.46
3.64
1.51
-0.43
-2.78
-6.06
-10.46
-15.81
-21.60
-27.20
-32.14
-36.27
-39.88
-43.57
-48.13
-54.22
-62.12
-71.52
-81.37
-89.97
-95.28
-95.49
-89.57
-77.70
-61.26
-42.50
-23.83
-7.18
6.42
16.84
24.56
30.23
34.31
37.05
38.52
38.89
38.55
38.09
38.12
39.05
40.88
43.20
45.38
46.84
47.25
46.62
45.26
43.55
41.79
40.02
38.05
35.52
32.14
27.87
22.97
17.95
13.38
9.58
6.51
3.79
0.88
-2.67
-7.05
-12.12
-17.53
-22.87
-27.82
-32.24
-36.20
-39.96
-43.92
-48.57
-54.41
-61.73
-70.37
-79.46
-87.39
-92.09
-91.71
-85.22
-72.89
-56.33
-37.90
-20.02
-4.46
7.98
17.34
24.09
28.81
31.89
33.59
34.14
33.96
33.56
33.55
34.39
36.20
38.73
41.39
43.47
44.44
44.19
43.00
41.38
39.75
38.22
36.58
34.45
31.55
27.90
23.76
19.50
15.50
11.98
8.96
6.34
3.91
1.39
-1.47
-4.88
-8.94
-13.50
-18.29
-22.96
-27.26
-31.13
-34.78
-38.55
-42.89
-48.25
-54.92
-62.88
-71.58
-79.81
-85.86
-87.83
-84.31
-74.90
-60.46
-42.98
-24.91
-8.42
5.16
15.51
22.97
28.08
31.24
32.61
32.31
30.74
28.63
26.94
26.52
27.77
30.45
33.81
36.94
39.12
40.01
39.73
38.67
37.24
35.66
33.88
31.68
28.83
25.25
21.12
16.79
12.67
9.02
5.87
2.98
-0.02
-3.51
-7.65
-12.34
-17.24
-21.92
-26.09
-29.73
-33.16
-36.91
-41.59
-47.68
-55.37
-64.38
-73.88
-82.47
-88.32
-89.65
-85.24
-74.97
-59.89
-42.02
-23.61
-6.57
7.97
19.62
28.48
34.76
38.60
40.17
39.79
38.09
35.92
34.19
33.55
34.31
36.28
38.95
41.66
43.78
44.93
45.01
44.15
42.62
40.61
38.15
35.12
31.38
26.86
21.78
16.57
11.77
7.74
4.47
1.52
-1.77
-5.99
-11.40
-17.71
-24.28
-30.37
-35.55
-39.84
-43.77
-48.15
-53.78
-61.26
-70.68
-81.62
-92.93
-102.86
-109.19
-109.82
-103.44
-90.04
-71.14
-49.38
-27.67
-8.37
7.36
19.50
28.74
35.85
41.33
45.29
47.74
48.89
49.26
49.58
50.52
52.41
55.09
58.08
60.70
62.47
63.15
62.87
61.90
60.51
58.82
56.68
53.80
49.88
44.86
39.03
32.92
27.20
22.36
18.53
15.41
12.39
8.77
4.11
-1.65
-8.17
-14.84
-21.09
-26.62
-31.48
-36.05
-40.90
-46.62
-53.74
-62.53
-72.86
-83.97
-94.32
-101.71
-103.79
-98.85
-86.53
-68.08
-46.07
-23.54
-3.01
14.13
27.67
38.12
46.11
51.98
55.73
57.35
57.16
55.87
54.52
54.05
54.98
57.22
60.20
63.11
65.27
66.35
66.42
65.76
64.68
63.32
61.54
59.04
55.50
50.81
45.20
39.20
33.48
28.60
24.75
21.63
18.63
15.02
10.37
4.60
-1.90
-8.52
-14.65
-19.98
-24.56
-28.72
-33.05
-38.16
-44.67
-52.95
-62.95
-73.95
-84.46
-92.40
-95.57
-92.38
-82.40
-66.57
-46.98
-26.20
-6.52
10.52
24.27
34.71
42.07
46.61
48.55
48.28
46.55
44.36
42.79
42.56
43.86
46.27
49.04
51.41
52.89
53.37
53.02
52.14
50.93
49.45
47.57
45.01
41.53
36.99
31.59
25.82
20.34
15.75
12.22
9.50
6.93
3.87
-0.07
-4.79
-9.80
-14.45
-18.33
-21.45
-24.23
-27.36
-31.54
-37.23
-44.54
-53.14
-62.20
-70.43
-76.14
-77.62
-73.53
-63.49
-48.33
-29.99
-10.99
6.35
20.49
30.91
37.85
41.92
43.65
43.46
41.75
39.14
36.45
34.54
33.99
34.85
36.61
38.50
39.86
40.36
40.08
39.31
38.28
36.97
35.12
32.37
28.56
23.81
18.59
13.52
9.13
5.63
2.85
0.31
-2.56
-6.11
-10.42
-15.17
-19.87
-24.07
-27.59
-30.60
-33.65
-37.41
-42.56
-49.46
-58.03
-67.61
-76.93
-84.23
-87.67
-85.79
-77.99
-64.83
-47.93
-29.51
-11.76
3.72
16.13
25.44
32.00
36.24
38.54
39.20
38.66
37.53
36.52
36.23
36.92
38.39
40.14
41.54
42.14
41.74
40.48
38.63
36.49
34.25
31.87
29.16
25.87
21.81
17.05
11.94
7.03
2.85
-0.35
-2.71
-4.76
-7.17
-10.39
-14.49
-19.15
-23.84
-28.12
-31.86
-35.31
-38.98
-43.44
-49.18
-56.39
-64.80
-73.59
-81.43
-86.59
-87.41
-82.75
-72.52
-57.75
-40.43
-22.83
-6.92
6.17
16.20
23.57
28.86
32.49
34.68
35.58
35.49
34.92
34.54
34.86
36.08
37.92
39.83
41.20
41.69
41.29
40.31
39.16
38.06
36.95
35.47
33.20
29.85
25.48
20.49
15.47
11.02
7.42
4.61
2.18
-0.44
-3.72
-7.79
-12.46
-17.28
-21.74
-25.55
-28.74
-31.67
-34.89
-38.98
-44.36
-51.11
-58.86
-66.75
-73.44
-77.32
-77.00
-71.65
-61.45
-47.58
-31.93
-16.44
-2.62
8.81
17.81
24.69
29.72
33.05
34.71
34.85
33.93
32.65
31.72
31.61
32.38
33.68
34.97
35.75
35.75
34.99
33.72
32.22
30.69
29.09
27.20
24.77
21.66
17.98
14.06
10.35
7.18
4.66
2.62
0.64
-1.70
-4.72
-8.43
-12.63
-16.94
-21.00
-24.64
-27.92
-31.11
-34.57
-38.64
-43.63
-49.67
-56.63
-63.86
-70.16
-73.90
-73.48
-67.91
-57.25
-42.72
-26.39
-10.44
3.43
14.34
22.16
27.20
29.89
30.60
29.69
27.68
25.25
23.23
22.28
22.71
24.37
26.69
28.93
30.46
30.95
30.47
29.34
27.94
26.48
24.90
22.91
20.19
16.67
12.60
8.53
5.03
2.46
0.76
-0.54
-2.09
-4.37
-7.52
-11.27
-15.12
-18.65
-21.74
-24.55
-27.50
-31.03
-35.48
-41.00
-47.50
-54.52
-61.16
-66.13
-67.91
-65.28
-57.73
-45.84
-31.21
-15.87
-1.78
9.85
18.62
24.79
28.80
30.97
31.44
30.35
28.11
25.40
23.13
22.08
22.56
24.29
26.55
28.54
29.71
29.93
29.44
28.62
27.65
26.36
24.35
21.22
16.89
11.77
6.57
2.09
-1.26
-3.55
-5.39
-7.52
-10.48
-14.35
-18.80
-23.21
-27.07
-30.16
-32.62
-34.93
-37.73
-41.72
-47.45
-54.99
-63.70
-72.16
-78.39
-80.47
-77.13
-68.28
-55.05
-39.34
-23.24
-8.38
4.33
14.65
22.63
28.40
31.98
33.48
33.22
31.89
30.41
29.64
30.11
31.75
34.00
36.05
37.25
37.38
36.66
35.61
34.65
33.91
33.13
31.82
29.53
26.10
21.71
16.90
12.31
8.45
5.47
3.12
0.87
-1.84
-5.39
-9.79
-14.70
-19.65
-24.19
-28.17
-31.68
-35.14
-39.13
-44.26
-50.93
-59.15
-68.27
-76.92
-83.24
-85.30
-81.76
-72.47
-58.50
-41.92
-25.06
-9.74
3.07
13.31
21.40
27.73
32.46
35.49
36.84
36.87
36.31
36.03
36.62
38.16
40.21
42.12
43.35
43.71
43.44
42.92
42.49
42.16
41.66
40.55
38.40
35.04
30.62
25.60
20.60
16.17
12.61
9.87
7.54
5.03
1.85
-2.21
-7.04
-12.23
-17.33
-22.02
-26.26
-30.23
-34.32
-38.95
-44.58
-51.52
-59.74
-68.66
-77.02
-82.93
-84.49
-80.42
-70.62
-56.32
-39.73
-23.24
-8.70
3.03
12.01
18.77
23.79
27.31
29.34
29.96
29.54
28.74
28.33
28.81
30.22
32.13
33.96
35.26
35.94
36.27
36.62
37.18
37.76
37.89
37.04
34.86
31.44
27.20
22.73
18.54
14.83
11.49
8.17
4.50
0.25
-4.51
-9.46
-14.14
-18.11
-21.16
-23.48
-25.56
-28.17
-32.05
-37.62
-44.82
-52.92
-60.60
-66.13
-67.89
-64.67
-56.19
-43.22
-27.48
-11.18
3.59
15.44
23.92
29.42
32.77
34.73
35.76
36.00
35.50
34.51
33.49
32.99
33.38
34.72
36.69
38.78
40.52
41.56
41.74
41.04
39.51
37.25
34.38
31.03
27.35
23.46
19.43
15.32
11.16
7.01
2.91
-1.09
-5.02
-8.91
-12.88
-17.05
-21.57
-26.63
-32.44
-39.14
-46.65
-54.48
-61.64
-66.70
-68.13
-64.82
-56.53
-44.07
-29.12
-13.71
0.47
12.44
21.99
29.39
34.97
38.79
40.71
40.58
38.54
35.24
31.72
29.07
28.07
28.86
30.87
33.09
34.48
34.30
32.38
28.97
24.60
19.71
14.59
9.30
3.82
-1.85
-7.62
-13.37
-18.95
-24.29
-29.34
-34.01
-38.15
-41.61
-44.37
-46.65
-49.02
-52.20
-56.75
-62.64
-69.00
-74.12
-75.98
-72.88
-64.13
-50.26
-32.94
-14.36
3.36
18.61
30.59
39.16
44.60
47.39
48.03
47.03
44.87
42.09
39.32
37.12
35.94
35.90
36.79
38.02
38.88
38.75
37.39
34.98
32.03
29.11
26.52
24.15
21.53
18.10
13.50
7.83
1.58
-4.56
-10.03
-14.61
-18.45
-21.94
-25.49
-29.46
-34.17
-39.86
-46.63
-54.15
-61.47
-67.00
-68.88
-65.60
-56.71
-43.12
-26.80
-10.17
4.75
16.93
26.31
33.44
38.93
43.06
45.80
47.03
46.83
45.63
44.09
42.88
42.41
42.65
43.27
43.72
43.57
42.62
40.96
38.86
36.61
34.39
32.17
29.77
26.95
23.52
19.48
15.04
10.53
6.25
2.45
-0.82
-3.73
-6.57
-9.68
-13.41
-18.02
-23.73
-30.51
-38.05
-45.57
-51.77
-55.09
-54.15
-48.24
-37.72
-23.96
-8.91
5.50
17.93
27.82
35.28
40.72
44.56
47.05
48.34
48.56
47.93
46.73
45.28
43.82
42.48
41.31
40.29
39.34
38.41
37.41
36.27
34.89
33.11
30.85
28.05
24.78
21.22
17.59
14.10
10.86
7.83
4.86
1.78
-1.56
-5.21
-9.14
-13.31
-17.78
-22.76
-28.69
-36.08
-45.28
-56.06
-67.41
-77.49
-84.09
-85.31
-80.37
-69.92
-55.93
-40.94
-27.12
-15.63
-6.35
1.80
10.19
19.80
30.70
41.85
51.36
57.14
57.68
52.95
44.75
36.43
31.83
34.00
44.08
60.95
81.57
101.96
118.27
127.78
129.33
123.49
112.12
97.79
83.04
69.80
59.25
51.85
47.58
46.00
46.22
46.72
45.45
40.23
29.34
12.18
-10.45
-36.51
-63.17
-87.25
-105.79
-116.49
-118.09
-110.66
-95.75
-76.04
-54.66
-34.42
-17.25
-3.98
5.33
11.10
13.88
14.41
13.70
13.09
14.16
18.42
26.92
40.08
57.47
77.57
97.63
113.81
121.96
118.90
103.87
79.20
49.73
20.98
-3.05
-21.05
-34.08
-44.03
-51.80
-56.58
-56.57
-50.49
-38.86
-24.16
-9.65
1.96
9.24
11.69
8.84
-0.32
-16.74
-40.12
-67.89
-95.36
-117.23
-129.74
-132.11
-126.60
-116.96
-106.30
-95.69
-84.12
-69.75
-51.53
-30.11
-7.68
13.13
30.41
43.69
53.48
60.38
63.94
62.32
53.04
34.46
7.29
-25.03
-57.08
-83.44
-100.64
-108.18
-108.23
-104.09
-98.54
-92.88
-87.06
-80.56
-73.43
-66.55
-61.20
-57.98
-56.31
-54.51
-50.68
-43.72
-33.83
-22.08
-9.53
3.69
18.81
37.91
62.75
93.69
128.93
164.63
195.67
216.79
223.84
214.82
190.54
154.61
112.68
70.99
34.65
6.53
-13.00
-25.38
-32.65
-36.30
-37.24
-36.13
-34.43
-34.67
-39.61
-50.71
-66.74
-83.60
-95.76
-98.58
-90.53
-73.71
-52.71
-32.32
-15.58
-3.25
5.20
10.08
10.53
4.96
-7.53
-25.83
-46.49
-64.97
-77.48
-82.41
-80.58
-74.32
-65.88
-56.57
-46.86
-37.15
-28.46
-22.19
-19.35
-19.65
-21.36
-22.01
-19.62
-13.68
-5.13
4.46
13.99
23.43
33.62
45.44
58.84
72.39
83.41
88.82
86.20
74.58
54.77
29.15
1.06
-25.97
-48.81
-65.14
-73.66
-74.05
-66.86
-53.46
-35.86
-16.49
2.02
17.13
26.88
30.15
27.03
18.55
6.05
-9.74
-29.15
-52.89
-80.67
-109.79
-135.05
-150.50
-152.17
-140.31
-119.51
-96.71
-77.96
-66.08
-60.07
-56.63
-52.61
-46.56
-38.91
-30.90
-23.16
-15.13
-5.48
6.86
21.71
37.41
51.15
60.01
62.13
57.34
47.21
34.13
20.18
6.21
-8.17
-23.70
-40.47
-57.15
-71.48
-81.30
-85.66
-85.25
-81.83
-77.24
-72.45
-67.38
-61.21
-53.16
-42.97
-30.85
-17.26
-2.63
12.83
28.79
44.64
59.27
71.27
79.19
81.89
78.65
69.23
53.91
33.52
9.62
-15.41
-38.66
-57.25
-69.03
-73.23
-70.59
-62.98
-52.58
-40.99
-28.73
-15.31
0.13
17.83
36.82
54.82
68.96
76.73
77.07
70.73
59.98
47.83
37.39
31.25
31.38
39.01
54.44
76.78
104.02
133.45
162.54
189.54
213.54
233.63
248.12
254.05
247.94
227.45
192.95
148.29
100.12
55.81
21.01
-1.95
-14.39
-20.22
-24.16
-29.87
-38.82
-49.84
-59.67
-64.21
-60.13
-46.25
-24.22
1.82
26.19
42.96
46.98
34.74
5.06
-40.09
-95.38
-152.52
-202.06
-236.00
-250.15
-245.44
-226.99
-201.71
-175.65
-152.25
-132.14
-114.27
-97.24
-80.24
-63.15
-46.22
-29.76
-14.12
-0.10
10.80
16.47
14.89
5.32
-10.81
-29.63
-45.92
-54.83
-53.81
-43.51
-27.45
-10.40
3.45
11.87
14.73
13.40
9.65
5.00
0.45
-3.42
-6.17
-7.40
-6.63
-3.42
2.64
11.70
23.37
36.54
49.47
60.27
67.61
71.37
72.70
73.52
75.46
79.09
83.47
86.58
86.26
81.22
71.63
59.18
46.44
35.99
29.69
28.49
32.60
41.89
55.82
72.90
89.98
102.31
104.72
93.90
70.67
40.71
12.89
-4.19
-5.91
6.65
27.72
50.09
68.62
82.05
92.44
102.90
115.16
128.46
139.97
146.18
144.24
132.51
110.24
76.80
31.71
-24.60
-89.09
-154.73
-210.80
-245.40
-249.76
-222.14
-169.26
-104.29
-41.72
7.94
41.23
60.95
72.71
81.08
87.72
92.07
93.59
93.23
93.06
94.60
97.07
97.50
92.36
80.08
62.43
43.99
29.89
23.14
23.13
26.04
26.86
21.69
9.34
-8.66
-29.17
-48.99
-66.04
-79.63
-89.92
-97.13
-101.09
-101.28
-97.41
-89.98
-80.47
-70.97
-63.36
-58.58
-56.33
-55.35
-54.08
-51.36
-46.76
-40.58
-33.58
-26.70
-21.01
-17.51
-16.95
-19.51
-24.50
-30.45
-35.73
-39.36
-41.71
-44.42
-49.52
-58.19
-69.79
-81.80
-90.79
-93.93
-90.16
-80.51
-67.43
-53.52
-40.60
-29.42
-20.04
-12.42
-6.80
-3.53
-2.66
-3.48
-4.65
-4.61
-2.24
2.75
9.62
16.96
23.09
26.63
26.80
23.45
17.04
8.46
-1.26
-11.05
-19.94
-27.10
-31.94
-34.12
-33.72
-31.30
-27.84
-24.49
-22.21
-21.59
-22.73
-25.40
-29.20
-33.60
-37.86
-41.09
-42.33
-40.87
-36.57
-29.92
-21.84
-13.26
-4.67
3.95
12.83
21.99
30.95
38.83
44.77
48.36
49.89
50.10
49.87
49.75
49.78
49.69
49.14
47.93
46.11
43.93
41.56
39.10
36.44
33.26
29.19
24.01
17.78
10.93
4.12
-1.98
-6.99
-10.91
-14.16
-17.41
-21.33
-26.36
-32.56
-39.51
-46.32
-51.76
-54.52
-53.55
-48.45
-39.56
-27.97
-15.14
-2.54
8.61
17.55
23.93
27.72
29.24
28.99
27.67
25.99
24.56
23.78
23.78
24.48
25.58
26.71
27.46
27.49
26.61
24.87
22.50
19.87
17.33
15.01
12.83
10.51
7.82
4.67
1.27
-2.04
-4.94
-7.39
-9.66
-12.22
-15.57
-19.96
-25.39
-31.46
-37.53
-42.76
-46.20
-47.02
-44.63
-38.90
-30.21
-19.40
-7.56
4.18
14.82
23.56
29.72
32.82
32.74
29.87
25.27
20.44
17.00
16.05
17.94
22.09
27.36
32.50
36.55
39.05
39.95
39.46
37.82
35.23
31.89
28.02
23.87
19.68
15.63
11.80
8.19
4.80
1.61
-1.39
-4.20
-6.91
-9.70
-12.87
-16.78
-21.69
-27.59
-33.96
-39.85
-43.98
-45.20
-42.79
-36.81
-28.05
-17.80
-7.44
1.97
9.76
15.70
19.78
22.11
22.92
22.54
21.46
20.25
19.39
19.19
19.64
20.57
21.72
22.84
23.76
24.37
24.58
24.29
23.47
22.15
20.52
18.72
16.86
14.86
12.54
9.67
6.15
2.16
-1.91
-5.61
-8.61
-10.93
-12.84
-14.80
-17.32
-20.79
-25.45
-31.29
-37.92
-44.41
-49.33
-51.00
-48.02
-39.93
-27.51
-12.65
2.30
15.31
25.25
32.00
36.05
38.05
38.44
37.44
35.26
32.38
29.55
27.61
27.10
28.04
29.94
31.94
33.26
33.46
32.49
30.66
28.39
26.01
23.62
21.12
18.33
15.13
11.61
7.96
4.41
1.12
-1.91
-4.80
-7.72
-10.73
-13.90
-17.23
-20.84
-24.97
-29.83
-35.38
-41.07
-45.82
-48.25
-47.11
-41.80
-32.63
-20.76
-7.87
4.38
14.75
22.68
28.19
31.70
33.71
34.61
34.67
34.09
33.18
32.34
32.13
32.96
35.05
38.33
42.50
47.11
51.63
55.38
57.62
57.58
54.74
49.03
41.09
32.18
23.87
17.56
13.97
12.89
13.29
13.69
12.77
9.94
5.49
0.37
-4.39
-8.25
-11.45
-14.59
-18.10
-21.51
-23.37
-21.77
-15.25
-3.70
11.36
27.22
40.98
50.49
55.06
55.34
52.79
49.07
45.55
43.10
42.19
43.09
45.69
49.41
53.23
55.98
57.11
57.17
58.05
62.38
72.52
89.38
111.85
136.94
160.69
179.48
191.06
195.23
193.88
190.21
187.28
186.55
186.52
182.78
169.28
140.57
94.24
32.26
-39.71
-114.35
-184.92
-246.81
-297.44
-335.24
-358.63
-366.19
-357.59
-334.65
-301.44
-262.97
-223.35
-184.49
-146.15
-107.31
-67.98
-30.10
3.05
28.57
45.43
55.23
61.34
67.34
75.36
85.54
96.61
107.00
116.18
124.69
133.49
142.79
151.42
157.15
158.00
153.60
145.78
137.96
133.51
134.15
139.18
145.96
151.21
152.41
148.53
139.87
127.49
112.50
95.70
77.50
58.17
37.81
16.26
-7.00
-32.69
-61.22
-92.05
-123.49
-153.07
-178.64
-199.37
-216.11
-230.74
-244.82
-258.64
-271.35
-281.93
-290.15
-296.58
-301.54
-303.73
-299.74
-285.16
-256.72
-214.25
-160.97
-102.01
-41.87
17.59
77.06
137.96
199.70
258.06
305.67
334.54
339.27
319.14
278.16
222.92
159.65
92.13
21.65
-51.34
-125.04
-195.17
-255.68
-300.65
-326.64
-333.90
-326.30
-309.95
-291.21
-274.75
-262.35
-253.04
-244.23
-233.31
-218.78
-200.46
-178.74
-154.01
-126.56
-97.42
-69.34
-46.72
-34.01
-33.35
-43.03
-57.92
-71.88
-80.43
-82.12
-77.66
-67.84
-52.19
-29.58
-0.42
31.63
60.16
78.96
85.70
84.02
81.84
87.24
103.73
128.22
153.09
170.40
175.85
169.85
155.86
137.77
118.36
100.22
87.03
83.82
94.57
119.18
151.92
183.52
205.90
216.68
220.21
223.98
232.63
243.55
247.13
231.81
190.79
126.20
48.57
-27.95
-91.70
-137.19
-165.31
-180.17
-185.57
-183.03
-172.26
-153.18
-127.73
-100.17
-75.79
-58.99
-51.79
-53.48
-61.28
-71.32
-79.87
-84.14
-82.95
-77.11
-69.13
-62.26
-59.12
-60.44
-64.65
-68.61
-69.15
-64.53
-55.04
-42.66
-29.86
-18.75
-10.57
-6.05
-5.95
-11.30
-23.12
-41.69
-65.71
-92.18
-116.81
-135.13
-143.66
-140.93
-127.78
-107.08
-82.80
-58.94
-38.45
-22.74
-11.74
-4.47
0.04
2.34
2.58
1.29
-0.09
0.82
6.65
18.84
36.97
58.50
79.80
97.62
110.44
119.15
126.31
134.68
145.48
157.67
168.16
173.36
170.76
160.11
143.39
123.76
103.98
85.17
66.59
46.11
21.37
-9.24
-46.15
-88.66
-135.21
-183.71
-231.77
-276.76
-315.96
-346.81
-367.17
-375.70
-371.93
-356.00
-328.12
-288.07
-235.46
-170.77
-97.01
-20.79
48.26
100.23
128.43
132.27
117.72
95.09
75.23
65.96
70.25
86.52
110.46
137.08
162.22
183.07
198.16
207.06
210.02
207.54
200.16
188.39
173.07
155.83
139.00
125.07
115.48
109.89
106.14
101.28
92.82
79.71
62.43
42.35
20.78
-1.54
-24.62
-48.84
-74.40
-100.78
-126.33
-148.28
-163.00
-166.96
-157.91
-136.09
-104.47
-68.18
-32.75
-2.41
20.98
37.90
50.00
58.93
65.43
69.43
70.66
69.33
66.47
63.56
62.11
63.06
66.62
72.51
80.19
89.06
98.49
107.67
115.55
120.95
122.81
120.45
113.83
103.74
91.78
80.09
70.71
64.88
62.55
62.31
62.03
59.72
54.29
45.86
35.35
23.81
11.87
-0.46
-13.61
-28.05
-44.00
-61.16
-78.44
-93.98
-105.15
-109.11
-103.63
-87.96
-63.34
-32.77
-0.23
30.42
56.37
76.23
89.94
98.34
102.71
104.35
104.41
103.68
102.58
101.18
99.34
96.92
93.85
90.26
86.43
82.67
79.17
75.98
72.94
69.72
65.95
61.34
55.77
49.41
42.59
35.69
28.98
22.57
16.41
10.37
4.33
-1.72
-7.72
-13.55
-19.08
-24.24
-29.09
-33.88
-39.06
-45.28
-53.10
-62.69
-73.51
-84.09
-92.32
-95.95
-93.34
-84.09
-69.20
-50.80
-31.38
-13.16
2.56
15.42
25.71
33.90
40.21
44.59
46.85
47.00
45.56
43.42
41.60
40.79
41.08
41.93
42.59
42.46
41.47
40.02
38.67
37.74
37.01
35.91
33.74
30.17
25.32
19.83
14.44
9.74
5.95
2.83
-0.05
-3.20
-6.92
-11.28
-16.06
-20.89
-25.41
-29.33
-32.63
-35.56
-38.61
-42.35
-47.28
-53.58
-60.89
-68.23
-74.05
-76.68
-74.74
-67.70
-56.04
-41.16
-24.95
-9.09
5.23
17.60
28.03
36.70
43.64
48.77
52.04
53.69
54.37
54.95
56.25
58.69
62.19
66.25
70.30
73.97
77.38
80.93
85.04
89.86
95.02
99.82
103.57
106.05
107.72
109.61
112.92
118.34
125.80
134.42
143.00
150.53
156.61
161.52
165.91
170.51
175.93
182.47
190.01
197.76
204.12
206.68
202.88
190.82
170.14
142.20
109.69
75.54
41.86
9.27
-22.97
-56.20
-91.21
-127.17
-161.34
-189.66
-208.16
-214.62
-209.68
-196.75
-180.79
-166.41
-156.56
-152.05
-152.25
-155.99
-162.31
-170.35
-178.95
-186.32
-190.39
-189.61
-183.84
-174.51
-164.01
-154.88
-148.76
-146.32
-147.47
-151.85
-159.17
-169.14
-181.31
-194.87
-208.92
-222.81
-236.41
-250.09
-264.27
-278.85
-293.05
-305.55
-314.91
-319.81
-318.90
-310.43
-292.15
-262.02
-219.49
-166.90
-109.76
-55.57
-11.38
18.91
35.94
44.41
50.88
60.88
76.95
98.21
121.47
143.12
160.50
172.52
179.19
181.01
178.43
171.84
161.88
149.67
136.91
125.52
117.13
112.66
111.95
113.89
116.78
118.95
119.31
117.68
114.80
111.84
109.86
109.22
109.41
109.28
107.60
103.68
97.77
91.07
85.24
81.77
81.39
83.68
87.17
89.82
89.79
86.20
79.66
72.09
66.00
63.24
63.75
64.98
62.36
50.66
25.66
-14.45
-68.35
-131.58
-197.12
-256.55
-301.48
-325.47
-325.44
-302.51
-261.51
-209.32
-152.57
-95.85
-41.10
11.41
61.39
106.88
143.86
167.41
173.68
161.94
135.49
100.86
65.67
35.99
14.45
-0.00
-10.70
-21.23
-33.61
-47.75
-62.02
-74.44
-83.45
-88.13
-87.89
-82.14
-70.30
-52.28
-29.06
-2.83
23.18
45.42
61.14
69.09
69.83
65.24
57.48
47.81
36.03
20.85
1.05
-23.06
-48.91
-72.03
-87.50
-91.77
-83.89
-65.65
-40.66
-13.04
13.83
37.84
58.08
74.34
86.66
95.11
99.71
100.69
98.58
94.29
88.92
83.47
78.53
74.12
69.91
65.42
60.39
54.84
49.07
43.37
37.83
32.32
26.43
19.74
11.97
3.15
-6.34
-15.87
-24.73
-32.45
-38.95
-44.68
-50.35
-56.63
-63.84
-71.73
-79.60
-86.58
-92.00
-95.61
-97.70
-98.97
-100.29
-102.57
-106.46
-112.27
-119.75
-127.98
-135.34
-139.79
-139.36
-132.73
-119.79
-101.67
-80.47
-58.62
-38.15
-20.33
-5.53
6.45
16.01
23.45
28.92
32.57
34.72
35.96
37.02
38.59
41.06
44.36
48.05
51.48
54.14
55.80
56.57
56.73
56.57
56.08
55.07
53.25
50.36
46.45
41.84
37.03
32.58
28.83
25.76
22.94
19.76
15.61
10.22
3.80
-3.04
-9.52
-15.05
-19.54
-23.37
-27.31
-32.19
-38.71
-47.21
-57.70
-69.61
-81.63
-91.75
-97.40
-96.31
-87.32
-70.97
-49.54
-26.34
-4.57
13.64
27.62
37.82
45.09
50.09
53.02
53.92
53.03
51.08
49.12
48.21
48.98
51.32
54.54
57.68
59.93
60.97
60.98
60.46
59.79
59.02
57.78
55.55
52.03
47.39
42.26
37.45
33.53
30.59
28.21
25.68
22.43
18.22
13.25
8.00
2.98
-1.48
-5.35
-8.91
-12.59
-16.92
-22.34
-29.13
-37.23
-46.12
-54.74
-61.57
-65.00
-63.70
-57.17
-45.93
-31.39
-15.45
0.10
13.94
25.47
34.50
41.12
45.40
47.46
47.56
46.24
44.29
42.61
41.95
42.70
44.75
47.55
50.33
52.38
53.34
53.28
52.60
51.76
51.00
50.20
48.98
46.91
43.82
39.95
35.86
32.20
29.48
27.86
27.09
26.61
25.78
24.10
21.46
18.25
15.22
13.27
12.93
14.01
15.51
15.90
13.89
9.26
3.35
-1.03
-0.43
7.95
25.19
50.09
79.40
108.79
134.09
152.13
161.14
160.62
150.95
133.31
109.47
81.64
52.05
22.44
-6.38
-34.37
-61.39
-86.21
-106.02
-116.96
-115.66
-101.04
-75.12
-42.64
-9.42
19.62
41.33
54.13
56.89
48.23
26.83
-7.12
-50.26
-95.50
-133.07
-153.26
-149.47
-120.55
-71.55
-12.39
44.97
90.00
116.76
125.62
122.80
117.86
119.56
131.87
151.84
170.55
176.97
162.96
127.06
74.94
16.83
-37.08
-80.43
-112.03
-134.38
-150.82
-163.13
-170.94
-173.00
-169.07
-160.96
-152.08
-145.73
-143.21
-143.20
-142.38
-137.35
-126.41
-110.56
-93.23
-78.71
-70.44
-69.54
-74.47
-81.70
-87.22
-87.96
-82.63
-71.91
-57.73
-42.25
-27.06
-12.80
0.76
14.08
27.21
39.54
49.74
56.49
59.05
57.76
53.94
49.54
46.37
45.43
46.53
48.44
49.37
47.58
42.01
32.55
20.31
7.49
-3.02
-8.43
-7.11
0.55
11.90
22.76
28.87
27.58
18.87
5.33
-9.05
-20.55
-26.93
-27.89
-24.39
-17.70
-8.73
2.02
14.06
26.33
37.32
45.50
50.00
51.17
50.36
49.32
49.38
50.81
52.88
54.27
53.72
50.45
44.31
35.72
25.38
14.15
2.97
-7.12
-15.12
-20.11
-21.40
-18.70
-12.24
-2.79
8.17
18.52
25.86
28.22
24.89
17.07
7.65
0.24
-2.43
0.29
6.46
12.39
14.02
8.48
-5.20
-26.03
-51.58
-78.64
-103.77
-123.90
-136.83
-141.90
-140.17
-134.07
-126.54
-120.00
-115.61
-113.05
-111.04
-108.45
-105.13
-102.38
-102.24
-106.34
-114.89
-126.26
-137.58
-145.73
-148.22
-143.85
-132.92
-117.16
-99.18
-81.75
-66.79
-54.60
-43.66
-31.29
-14.99
6.28
31.59
58.52
84.69
108.73
130.38
149.69
166.07
178.01
183.92
183.29
177.21
168.10
158.66
150.72
144.64
139.53
133.81
126.03
115.42
101.94
86.32
69.76
53.73
39.57
28.23
20.00
14.48
10.74
7.75
4.69
1.17
-2.90
-7.37
-12.01
-16.50
-20.50
-23.67
-25.82
-27.09
-27.98
-29.25
-31.60
-35.32
-40.12
-45.05
-48.82
-50.26
-48.87
-45.08
-40.23
-36.15
-34.51
-36.26
-41.29
-48.53
-56.38
-63.21
-67.85
-69.72
-68.91
-65.91
-61.41
-56.07
-50.51
-45.20
-40.50
-36.61
-33.54
-31.16
-29.15
-27.17
-24.91
-22.29
-19.42
-16.60
-14.13
-12.22
-10.88
-9.91
-9.06
-8.07
-6.83
-5.38
-3.90
-2.58
-1.57
-0.91
-0.50
-0.20
0.12
0.56
1.11
1.71
2.26
2.68
2.94
3.07
3.12
3.16
3.23
3.35
3.51
3.67
3.80
3.88
3.91
3.90
3.87
3.83
3.80
3.77
3.76
3.74
3.73
3.71
3.70
3.68
3.66
3.65
3.63
3.62
3.60
3.58
3.57
3.55
3.54
3.53
3.51
3.49
3.48
3.47
3.45
3.44
3.42
3.41
3.39
3.38
3.36
3.35
3.33
3.32
3.31
3.29
3.28
3.27
3.25
3.24
3.23
3.21
3.20
3.19
3.17
3.16
3.15
3.13
3.12
3.11
3.10
3.08
3.07
3.05
3.04
3.03
3.02
3.00
2.99
2.98
2.96
2.95
2.94
2.93
2.92
2.90
2.89
2.88
2.86
2.85
2.84
2.83
2.82
2.81
2.79
2.78
2.77
2.76
2.75
2.74
2.72
2.71
2.70
2.69
2.68
2.67
2.66
2.64
2.63
2.62
2.61
2.60
2.59
2.58
2.57
2.56
2.55
2.53
2.52
2.51
2.50
2.49
2.48
2.47
2.46
2.45
2.44
2.43
2.42
2.41
2.40
2.39
2.38
2.37
2.36
2.35
2.34
2.33
2.32
2.31
2.30
2.29
2.28
2.27
2.26
2.25
2.24
2.23
2.22
2.21
2.21
2.20
2.19
2.18
2.17
2.16
2.15
2.14
2.13
2.12
2.11
2.10
2.09
2.08
2.07
2.08
2.08
2.08
2.10
2.10
2.11
2.12
2.13
2.15
2.17
2.18
2.20
2.23
2.25
2.28
2.32
2.36
2.42
2.49
2.56
2.61
2.65
2.66
2.65
2.64
2.65
2.68
2.74
2.83
2.92
3.01
3.08
3.14
3.22
3.34
3.52
3.76
4.04
4.31
4.57
4.78
4.98
5.21
5.51
5.91
6.40
6.92
7.42
7.85
8.18
8.47
8.75
9.12
9.61
10.24
11.01
11.86
12.72
13.45
13.89
13.88
13.31
12.17
10.50
8.35
5.72
2.58
-1.04
-4.98
-8.96
-12.55
-15.53
-17.93
-20.14
-22.78
-26.46
-31.54
-38.02
-45.53
-53.32
-60.45
-65.77
-68.23
-67.04
-61.98
-53.52
-42.69
-30.82
-19.08
-8.29
1.29
9.67
16.96
23.11
28.00
31.49
33.62
34.72
35.26
35.74
36.51
37.67
39.08
40.48
41.56
42.14
42.17
41.70
40.89
39.83
38.52
36.98
35.12
32.91
30.31
27.39
24.24
21.04
17.95
15.05
12.34
9.63
6.68
3.33
-0.46
-4.56
-8.74
-12.78
-16.56
-20.13
-23.64
-27.34
-31.50
-36.40
-42.23
-48.90
-55.91
-62.29
-66.77
-68.19
-65.85
-59.79
-50.77
-39.98
-28.65
-17.72
-7.75
1.11
8.84
15.43
20.81
24.82
27.43
28.81
29.37
29.67
30.24
31.37
33.03
34.94
36.72
38.05
38.83
39.11
39.01
38.60
37.87
36.74
35.11
32.95
30.30
27.28
24.05
20.87
17.91
15.24
12.81
10.42
7.85
4.93
1.65
-1.90
-5.52
-9.08
-12.50
-15.78
-19.01
-22.28
-25.77
-29.70
-34.33
-39.85
-46.13
-52.62
-58.29
-61.91
-62.42
-59.31
-52.84
-43.89
-33.66
-23.21
-13.27
-4.15
4.02
11.12
16.91
21.06
23.44
24.20
23.84
23.12
22.75
23.21
24.57
26.54
28.58
30.17
30.96
30.96
30.43
29.74
29.11
28.50
27.58
25.92
23.27
19.81
16.06
12.73
10.25
8.56
7.07
4.98
1.80
-2.44
-7.11
-11.36
-14.60
-16.72
-18.24
-19.93
-22.62
-26.83
-32.74
-40.04
-48.04
-55.66
-61.59
-64.55
-63.71
-58.81
-50.42
-39.64
-27.80
-16.11
-5.40
3.86
11.49
17.46
21.81
24.66
26.18
26.72
26.73
26.69
27.06
28.15
29.97
32.28
34.62
36.52
37.65
37.99
37.74
37.17
36.42
35.36
33.67
31.08
27.57
23.46
19.29
15.62
12.68
10.33
8.11
5.46
1.99
-2.34
-7.30
-12.42
-17.33
-21.77
-25.79
-29.62
-33.67
-38.30
-43.82
-50.33
-57.51
-64.66
-70.63
-74.07
-73.78
-69.15
-60.46
-48.82
-35.83
-23.04
-11.49
-1.57
6.82
13.89
19.69
24.15
27.20
29.04
30.14
31.18
32.62
34.61
36.83
38.81
40.22
41.02
41.47
41.95
42.66
43.45
43.87
43.32
41.37
37.95
33.41
28.42
23.72
19.82
16.86
14.56
12.43
9.94
6.76
2.78
-1.80
-6.66
-11.49
-15.98
-20.03
-23.64
-27.06
-30.70
-35.13
-40.87
-48.19
-56.79
-65.69
-73.33
-78.01
-78.33
-73.76
-64.79
-52.71
-39.21
-25.81
-13.53
-2.79
6.40
14.18
20.62
25.74
29.51
32.02
33.54
34.46
35.18
36.00
37.05
38.29
39.56
40.68
41.53
42.09
42.39
42.46
42.28
41.77
40.70
38.89
36.21
32.79
28.92
25.03
21.51
18.49
15.84
13.20
10.23
6.71
2.68
-1.67
-6.09
-10.34
-14.38
-18.26
-22.20
-26.54
-31.64
-37.83
-45.20
-53.42
-61.63
-68.50
-72.58
-72.73
-68.51
-60.36
-49.39
-37.03
-24.55
-12.81
-2.22
7.11
15.15
21.78
26.85
30.28
32.24
33.15
33.63
34.29
35.51
37.33
39.50
41.56
43.12
43.91
43.96
43.51
42.81
42.01
41.02
39.59
37.46
34.51
30.88
26.96
23.20
19.92
17.20
14.80
12.26
9.20
5.39
0.95
-3.81
-8.47
-12.77
-16.63
-20.19
-23.73
-27.55
-31.89
-36.94
-42.79
-49.34
-56.20
-62.58
-67.32
-69.12
-67.04
-60.84
-51.23
-39.56
-27.42
-16.02
-5.96
2.74
10.25
16.61
21.54
24.71
25.98
25.72
24.74
23.97
24.10
25.26
27.13
29.12
30.77
31.94
32.73
33.31
33.78
33.94
33.46
32.07
29.68
26.48
22.85
19.16
15.75
12.66
9.80
6.89
3.67
0.05
-3.85
-7.69
-11.13
-13.97
-16.39
-18.85
-21.94
-26.21
-31.84
-38.73
-46.34
-53.91
-60.37
-64.57
-65.48
-62.49
-55.63
-45.68
-33.86
-21.59
-9.98
0.27
8.91
15.94
21.42
25.38
27.85
29.04
29.30
29.17
29.17
29.62
30.59
31.88
33.17
34.21
34.87
35.24
35.44
35.51
35.33
34.58
32.91
30.14
26.37
22.03
17.64
13.73
10.49
7.81
5.26
2.39
-1.12
-5.29
-9.88
-14.53
-18.99
-23.19
-27.26
-31.48
-36.15
-41.56
-47.90
-55.24
-63.29
-71.33
-78.16
-82.35
-82.68
-78.57
-70.40
-59.47
-47.49
-36.02
-25.97
-17.43
-9.97
-3.09
3.41
9.23
13.90
17.07
18.85
19.82
20.67
21.93
23.66
25.59
27.40
29.09
31.04
33.84
37.82
42.86
48.26
53.00
56.02
56.46
53.78
47.78
38.76
27.64
15.82
4.92
-3.87
-10.31
-15.22
-20.07
-26.30
-34.54
-44.33
-54.41
-63.02
-68.66
-70.65
-69.59
-67.49
-67.34
-72.08
-83.21
-99.49
-116.59
-128.02
-127.21
-110.20
-77.58
-34.79
9.36
45.45
66.38
69.69
58.41
40.06
24.17
18.85
27.77
48.98
75.72
99.10
111.26
107.63
87.85
55.40
16.04
-23.55
-57.07
-79.37
-87.12
-79.14
-56.71
-23.19
16.59
57.23
93.60
121.42
137.91
142.16
135.37
120.28
100.32
78.43
56.43
35.10
14.84
-3.52
-18.76
-29.72
-36.23
-39.77
-43.20
-49.61
-60.73
-75.79
-91.51
-103.27
-107.02
-100.86
-85.58
-64.17
-40.35
-17.29
3.20
20.50
34.64
45.56
52.94
56.43
56.14
52.91
48.20
43.61
40.29
38.65
38.44
39.09
40.10
41.31
42.87
45.02
47.84
51.06
54.08
56.10
56.37
54.46
50.50
45.24
39.84
35.45
32.82
31.86
31.71
31.07
28.89
24.81
19.41
13.89
9.49
6.88
5.76
4.93
2.59
-3.00
-12.83
-26.76
-43.37
-60.20
-74.42
-83.53
-86.04
-81.77
-71.73
-57.75
-41.91
-26.06
-11.59
0.64
10.16
16.81
20.58
21.80
21.09
19.36
17.58
16.59
16.76
17.97
19.72
21.38
22.56
23.13
23.35
23.50
23.73
23.94
23.82
23.04
21.45
19.16
16.48
13.78
11.33
9.14
6.96
4.48
1.36
-2.52
-7.02
-11.92
-16.89
-21.78
-26.58
-31.53
-36.94
-43.23
-50.75
-59.58
-69.36
-79.08
-87.17
-91.80
-91.43
-85.47
-74.44
-59.93
-43.94
-28.16
-13.51
-0.10
12.29
23.70
33.66
41.42
46.42
48.76
49.34
49.59
50.84
53.86
58.54
64.07
69.45
73.82
76.81
78.41
78.81
78.13
76.34
73.26
68.76
62.91
56.04
48.70
41.55
35.05
29.41
24.50
19.95
15.38
10.52
5.30
-0.17
-5.67
-10.92
-15.64
-19.50
-22.24
-23.89
-24.86
-26.03
-28.48
-33.04
-39.73
-47.50
-54.27
-57.68
-55.93
-48.58
-36.65
-22.32
-7.92
4.90
15.56
24.49
32.44
39.96
47.12
53.65
59.40
64.45
68.93
72.58
74.56
73.69
69.29
61.74
52.48
43.19
34.76
26.70
17.73
6.81
-5.69
-18.00
-27.85
-33.79
-35.99
-35.88
-35.00
-33.89
-31.90
-27.93
-21.51
-13.45
-5.67
-0.29
1.27
-1.30
-7.23
-15.09
-23.05
-29.30
-32.35
-31.64
-28.01
-23.70
-21.65
-24.22
-32.00
-43.44
-55.40
-64.50
-68.50
-66.98
-61.06
-52.55
-43.09
-33.67
-24.80
-16.80
-10.09
-5.13
-2.17
-1.05
-1.28
-2.27
-3.51
-4.74
-5.82
-6.56
-6.70
-5.98
-4.44
-2.52
-1.00
-0.69
-2.04
-4.92
-8.70
-12.54
-15.77
-18.11
-19.64
-20.56
-20.97
-20.75
-19.73
-17.87
-15.49
-13.34
-12.18
-12.61
-14.65
-17.77
-21.05
-23.63
-25.06
-25.60
-26.15
-27.90
-32.01
-39.03
-48.59
-59.44
-69.69
-77.34
-80.91
-79.73
-74.08
-64.91
-53.45
-40.89
-28.20
-16.15
-5.33
3.79
10.94
16.14
19.71
22.21
24.26
26.44
29.26
33.12
38.35
44.98
52.59
60.26
66.75
70.98
72.41
71.37
68.85
66.00
63.57
61.58
59.47
56.52
52.32
47.04
41.29
35.65
30.44
25.53
20.58
15.25
9.45
3.42
-2.44
-7.72
-12.21
-16.00
-19.48
-23.24
-27.94
-34.02
-41.52
-49.79
-57.58
-63.24
-65.25
-62.77
-55.99
-46.12
-34.85
-23.74
-13.62
-4.54
3.96
12.31
20.48
27.91
33.79
37.55
39.09
38.92
37.96
37.30
37.87
40.27
44.54
50.18
56.24
61.55
65.13
66.44
65.57
63.07
59.77
56.40
53.38
50.80
48.43
45.95
42.97
39.26
34.76
29.68
24.42
19.42
15.01
11.20
7.57
3.38
-2.14
-9.54
-18.94
-29.95
-41.94
-54.11
-65.67
-75.73
-83.28
-87.23
-86.68
-81.29
-71.47
-58.40
-43.64
-28.70
-14.67
-2.08
8.96
18.46
26.35
32.47
36.79
39.61
41.75
44.53
49.45
57.86
70.19
85.57
101.60
114.69
121.22
118.77
107.08
88.27
65.92
43.71
24.15
8.07
-5.02
-15.95
-25.26
-32.96
-39.04
-43.92
-48.59
-54.18
-61.32
-69.77
-78.61
-86.80
-93.78
-99.60
-104.82
-110.18
-116.38
-124.10
-133.96
-146.38
-161.21
-177.35
-192.75
-204.70
-210.56
-208.42
-197.62
-178.67
-153.07
-122.87
-90.39
-58.08
-28.32
-3.24
15.72
28.03
34.29
36.05
35.39
34.31
34.29
36.03
39.41
43.92
48.82
53.54
57.72
61.21
63.96
65.92
66.97
66.84
65.24
61.99
57.16
51.11
44.41
37.63
31.19
25.27
19.92
15.16
11.08
7.78
5.24
3.27
1.48
-0.54
-3.09
-6.25
-9.93
-13.82
-17.38
-19.84
-20.21
-17.57
-11.36
-1.70
10.54
24.09
37.73
50.74
62.97
74.50
85.20
94.43
101.40
105.61
107.46
108.36
110.10
114.15
120.97
129.76
138.87
146.26
149.95
148.37
140.61
126.91
108.91
89.56
72.22
59.45
51.89
47.85
44.20
37.79
27.02
12.53
-3.24
-17.30
-27.56
-33.68
-37.16
-40.53
-46.30
-56.08
-70.16
-87.68
-107.06
-126.41
-143.85
-157.76
-166.90
-170.62
-169.00
-162.82
-153.35
-141.90
-129.52
-116.92
-104.62
-93.02
-82.54
-73.37
-65.22
-57.45
-49.24
-40.14
-30.31
-20.59
-12.07
-5.60
-1.46
0.79
1.99
2.96
4.15
5.45
6.32
6.18
4.69
1.99
-1.30
-4.43
-6.85
-8.55
-10.14
-12.59
-16.84
-23.38
-32.01
-41.99
-52.32
-62.09
-70.69
-77.88
-83.56
-87.48
-89.11
-87.65
-82.30
-72.72
-59.27
-43.12
-25.96
-9.56
4.71
16.15
24.73
30.98
35.64
39.44
42.89
46.14
49.04
51.31
52.73
53.48
54.07
55.18
57.34
60.55
64.32
67.74
69.88
70.05
67.96
63.68
57.66
50.59
43.33
36.64
30.91
26.01
21.39
16.39
10.71
4.50
-1.78
-7.87
-14.04
-21.00
-29.32
-38.92
-48.75
-57.27
-63.24
-66.24
-66.87
-65.95
-63.84
-59.85
-52.66
-41.11
-25.22
-6.55
12.25
28.31
39.63
45.57
46.95
45.58
43.64
43.11
45.21
50.30
57.66
65.88
73.27
78.38
80.49
79.77
77.10
73.65
70.33
67.39
64.49
61.01
56.65
51.68
46.97
43.45
41.66
41.49
42.25
43.07
43.22
42.27
40.01
36.30
31.06
24.36
16.69
8.88
2.09
-2.71
-5.11
-5.61
-5.60
-6.84
-10.76
-17.59
-26.13
-34.07
-38.99
-39.49
-35.87
-29.90
-23.78
-19.04
-15.86
-13.29
-10.06
-5.52
0.04
5.80
11.03
15.64
20.17
25.15
30.51
35.28
37.86
36.84
31.88
24.00
15.30
8.06
3.79
2.59
3.33
4.26
3.84
1.42
-2.64
-7.30
-11.36
-13.96
-14.80
-14.04
-12.16
-9.79
-7.68
-6.65
-7.50
-10.76
-16.53
-24.21
-32.63
-40.25
-45.56
-47.46
-45.45
-39.69
-30.82
-19.76
-7.41
5.41
18.02
29.73
39.79
47.40
51.89
53.08
51.38
47.84
43.76
40.34
38.20
37.51
37.93
38.99
40.24
41.34
42.05
42.23
41.90
41.23
40.55
40.18
40.24
40.54
40.62
40.04
38.65
36.87
35.58
35.92
38.78
44.37
51.90
59.73
65.76
68.11
65.76
58.82
48.63
37.31
27.29
20.54
17.98
19.09
22.10
24.70
24.91
22.09
17.37
13.44
13.56
20.35
34.80
56.13
82.30
111.12
141.18
172.03
203.64
235.53
266.01
292.27
311.01
319.75
317.54
305.20
284.63
257.93
226.65
191.66
153.68
113.79
73.77
35.66
1.19
-29.07
-55.98
-81.57
-108.26
-138.04
-171.74
-208.84
-247.59
-285.73
-321.19
-352.77
-380.36
-405.16
-429.22
-454.69
-482.32
-510.15
-532.99
-543.43
-534.42
-502.46
-449.61
-383.48
-314.67
-252.89
-203.62
-166.63
-137.15
-108.42
-74.57
-32.14
19.76
79.76
144.50
208.61
265.00
305.93
325.14
319.80
291.63
246.31
191.08
132.02
72.05
11.07
-51.77
-115.32
-174.91
-222.85
-251.19
-255.03
-234.61
-195.07
-144.22
-89.42
-35.26
16.89
67.51
117.10
164.52
206.97
240.69
262.30
269.73
262.51
241.70
209.47
169.19
124.70
79.87
37.58
-1.17
-37.40
-73.84
-113.49
-158.12
-207.13
-257.23
-303.30
-339.97
-363.18
-371.17
-364.67
-346.33
-319.47
-286.94
-250.74
-211.94
-170.95
-127.80
-82.64
-36.48
8.29
48.31
80.30
102.42
115.02
120.68
123.03
125.16
128.29
130.98
131.15
128.09
123.49
120.64
122.98
132.59
149.58
172.25
196.10
217.42
234.95
249.67
262.86
274.70
284.00
288.89
287.74
275.90
251.53
217.55
180.35
145.58
115.62
89.71
65.45
40.63
7.88
-36.54
-89.67
-143.61
-191.34
-229.92
-260.12
-284.68
-306.95
-338.58
-387.87
-454.85
-531.64
-609.18
-681.27
-745.37
-801.99
-800.70
-717.75
-570.28
-403.90
-255.38
-136.87
-44.20
30.77
94.08
148.96
188.80
209.17
210.52
201.66
188.66
172.88
153.58
131.60
110.51
88.99
66.89
46.74
32.57
26.16
25.62
26.94
26.54
22.72
11.98
-6.04
-27.21
-44.65
-53.60
-53.71
-48.25
-41.69
-37.25
-37.65
-42.71
-49.50
-54.17
-54.41
-49.74
-40.39
-25.95
-4.96
23.63
59.67
100.58
140.78
172.29
187.47
182.34
158.77
123.91
87.16
55.72
31.77
12.32
-8.19
-34.20
-66.39
-101.55
-134.62
-161.37
-180.04
-191.17
-196.07
-195.34
-188.19
-173.11
-148.72
-115.11
-74.22
-29.47
15.34
57.05
93.94
125.89
153.89
179.40
203.72
227.73
251.83
275.86
298.97
319.53
335.25
343.66
342.86
332.12
312.27
285.56
255.14
224.34
195.92
171.57
151.68
135.49
121.45
107.81
93.20
76.87
58.74
39.14
18.48
-2.87
-24.53
-46.00
-66.63
-85.49
-101.51
-113.44
-120.09
-120.43
-114.05
-101.43
-84.15
-64.63
-45.60
-29.43
-17.50
-10.04
-6.34
-5.22
-5.38
-5.71
-5.28
-3.29
0.85
7.40
16.07
26.00
35.99
44.88
51.93
57.01
60.41
62.58
63.90
64.43
64.03
62.44
59.43
54.90
48.99
42.10
34.83
27.82
21.42
15.40
8.91
0.78
-9.83
-22.77
-36.51
-48.50
-55.96
-56.86
-50.68
-38.43
-22.11
-4.02
13.95
30.56
45.15
57.43
67.21
74.32
78.72
80.72
81.19
81.53
83.34
87.95
95.81
106.19
117.36
127.20
133.93
136.67
135.59
131.67
126.24
120.58
115.66
111.84
108.70
105.12
99.46
90.30
77.05
60.56
43.00
27.29
16.03
10.40
9.71
11.41
11.97
8.12
-2.00
-18.16
-38.18
-58.86
-77.15
-91.08
-100.04
-104.31
-104.33
-100.24
-91.96
-79.80
-64.95
-49.55
-36.00
-26.02
-19.82
-15.93
-11.87
-5.21
5.46
19.84
36.09
51.47
63.38
70.22
71.90
69.61
65.15
60.13
55.34
50.72
45.81
40.31
34.38
28.60
23.53
19.25
15.25
10.63
4.55
-3.42
-13.11
-23.74
-34.08
-42.65
-48.01
-49.08
-45.38
-37.21
-25.60
-12.03
1.93
14.97
26.20
35.16
41.66
45.67
47.25
46.66
44.45
41.42
38.50
36.47
35.71
36.01
36.75
37.18
36.75
35.36
33.30
31.02
28.78
26.48
23.64
19.73
14.45
7.97
0.96
-5.75
-11.47
-16.00
-19.67
-23.23
-27.54
-33.31
-40.86
-49.90
-59.52
-68.19
-74.09
-75.53
-71.55
-62.29
-48.99
-33.64
-18.26
-4.33
7.47
17.15
25.01
31.21
35.65
38.15
38.71
37.76
36.13
34.72
34.23
34.80
36.05
37.27
37.78
37.23
35.67
33.49
31.11
28.76
26.40
23.75
20.48
16.38
11.48
6.08
0.63
-4.39
-8.68
-12.16
-15.08
-17.90
-21.10
-25.12
-30.24
-36.44
-43.44
-50.55
-56.72
-60.66
-61.11
-57.25
-49.02
-37.21
-23.23
-8.66
5.18
17.44
27.72
35.86
41.72
45.30
46.82
46.95
46.72
47.23
49.17
52.47
56.23
59.08
59.85
58.13
54.59
50.67
47.79
46.20
44.32
38.93
26.31
3.97
-27.72
-64.93
-101.02
-128.25
-139.57
-130.21
-98.64
-46.73
20.12
93.53
163.39
220.03
256.60
271.00
265.99
247.88
224.01
200.56
181.60
169.54
166.22
173.56
192.97
223.81
262.14
300.68
330.64
344.64
339.20
315.73
279.42
236.74
192.81
150.02
108.38
66.77
24.54
-17.91
-59.30
-97.98
-132.15
-159.89
-179.11
-188.16
-186.70
-176.34
-160.63
-143.92
-129.84
-120.14
-114.54
-111.53
-109.46
-107.13
-103.81
-98.89
-91.75
-82.06
-70.52
-59.10
-50.66
-47.78
-51.58
-61.09
-73.54
-85.57
-94.60
-99.78
-101.93
-102.55
-102.72
-102.31
-100.10
-94.72
-85.86
-75.02
-65.23
-59.70
-60.31
-66.62
-76.18
-85.83
-93.34
-98.20
-101.41
-104.33
-107.43
-109.95
-110.36
-107.29
-100.29
-89.85
-77.00
-62.76
-48.04
-34.01
-22.43
-15.30
-13.78
-17.22
-22.82
-26.57
-25.20
-18.01
-7.56
1.32
3.81
-2.53
-16.61
-34.41
-50.81
-61.90
-66.18
-64.65
-59.80
-54.23
-49.81
-47.57
-47.99
-51.63
-59.02
-70.07
-83.14
-94.59
-99.41
-92.77
-71.84
-36.97
8.56
60.13
113.60
166.31
216.75
263.08
301.95
328.64
338.91
331.68
310.46
282.53
256.15
237.19
227.11
223.24
220.97
216.43
208.05
196.50
183.25
169.24
154.26
137.41
118.06
96.46
73.77
51.49
30.69
11.75
-5.68
-22.28
-38.95
-56.47
-75.35
-95.75
-117.51
-140.10
-162.75
-184.58
-204.99
-223.91
-242.10
-261.09
-282.87
-308.91
-339.38
-372.81
-406.37
-436.57
-460.10
-474.43
-478.55
-473.54
-462.93
-452.39
-448.34
-455.80
-476.03
-505.39
-536.03
-558.50
-565.02
-551.96
-520.40
-474.72
-420.33
-361.75
-301.90
-242.56
-185.00
-130.45
-80.03
-34.30
7.11
45.74
83.98
124.54
169.60
219.69
272.90
324.53
367.73
395.27
401.49
383.89
343.60
284.80
213.22
134.96
55.79
-18.94
-84.31
-136.22
-172.30
-192.71
-200.36
-200.06
-196.86
-194.30
-193.35
-192.38
-188.06
-176.97
-156.94
-127.62
-90.37
-47.37
-0.97
46.71
93.58
137.19
174.71
203.56
222.41
232.10
235.67
237.23
240.24
246.03
253.41
259.60
261.86
258.83
250.94
239.70
226.67
212.70
197.85
181.88
164.53
145.68
125.02
102.06
76.40
48.51
19.97
-6.74
-29.28
-46.57
-59.34
-69.67
-79.78
-90.95
-102.91
-114.06
-122.21
-125.12
-120.88
-108.27
-87.18
-59.05
-27.11
4.44
31.82
53.24
69.72
84.52
101.24
121.82
145.34
168.43
186.67
196.29
195.06
182.52
159.51
127.89
90.35
50.28
11.26
-23.65
-52.64
-75.44
-92.67
-105.13
-113.16
-116.61
-115.37
-109.93
-101.61
-92.14
-83.12
-75.54
-69.82
-66.13
-64.68
-65.85
-69.90
-76.55
-84.81
-93.18
-100.11
-104.54
-106.08
-104.88
-101.25
-95.24
-86.48
-74.30
-57.98
-37.00
-11.16
19.22
52.91
87.38
118.54
141.34
151.21
145.87
126.71
98.76
68.97
43.37
24.56
10.63
-3.74
-24.42
-54.78
-93.89
-136.68
-176.43
-207.53
-227.22
-235.46
-233.64
-223.50
-207.07
-187.55
-169.56
-158.10
-156.14
-162.62
-172.47
-179.02
-177.57
-167.83
-153.60
-139.95
-130.16
-124.11
-119.46
-114.10
-107.97
-102.94
-100.87
-101.61
-102.32
-98.74
-87.26
-66.77
-39.17
-8.31
21.67
47.83
69.02
85.62
98.70
109.20
117.55
123.78
127.91
130.24
131.46
132.32
133.34
134.56
135.56
135.70
134.46
131.67
127.59
122.72
117.65
112.85
108.54
104.61
100.68
96.20
90.68
83.88
75.91
67.22
58.37
49.74
41.45
33.15
24.23
13.97
1.79
-12.37
-27.82
-42.91
-55.31
-62.50
-62.56
-54.82
-40.11
-20.55
1.17
22.50
41.68
57.82
70.77
80.78
88.17
93.13
95.74
96.01
94.00
89.98
84.44
78.16
71.99
66.65
62.42
58.90
55.01
49.18
39.85
26.15
8.27
-12.39
-33.65
-53.36
-70.03
-83.42
-94.30
-103.91
-113.40
-123.55
-134.69
-146.93
-160.14
-173.70
-186.25
-196.22
-203.01
-208.17
-215.19
-227.64
-246.25
-266.85
-280.74
-277.91
-251.59
-201.44
-133.75
-58.36
15.76
83.70
145.15
202.66
259.02
315.40
370.84
422.69
467.28
500.58
518.94
520.26
504.91
475.93
438.34
397.60
358.01
321.92
289.89
261.46
236.06
213.28
192.77
173.99
156.18
138.60
120.83
103.03
85.73
69.65
55.31
42.81
31.89
22.23
13.79
7.11
3.11
2.53
5.34
10.23
14.89
16.82
14.46
7.92
-1.01
-9.57
-15.12
-16.04
-11.91
-2.94
10.57
28.56
50.89
76.62
103.44
127.78
145.75
154.25
152.14
140.52
122.35
101.29
80.65
62.59
47.87
36.21
26.77
18.76
11.71
5.60
0.54
-3.47
-6.93
-10.65
-15.42
-21.48
-28.44
-35.28
-40.91
-44.68
-46.57
-47.11
-47.00
-46.80
-46.73
-46.78
-46.91
-47.15
-47.62
-48.43
-49.59
-50.98
-52.38
-53.58
-54.46
-55.07
-55.69
-56.77
-58.75
-61.66
-64.86
-66.93
-66.06
-60.73
-50.41
-35.84
-18.79
-1.43
14.46
27.88
38.65
47.08
53.61
58.62
62.44
65.49
68.25
71.17
74.32
77.22
78.79
77.74
73.00
64.23
51.99
37.65
22.92
9.35
-1.99
-10.70
-16.81
-20.64
-22.58
-22.97
-22.16
-20.65
-19.27
-19.23
-21.84
-27.86
-36.90
-47.24
-56.29
-61.72
-62.52
-59.43
-54.61
-50.47
-48.65
-49.53
-52.58
-57.02
-62.25
-67.73
-72.52
-75.01
-73.23
-65.65
-52.10
-34.15
-14.69
3.05
16.61
25.09
29.17
30.53
30.95
31.55
32.44
32.88
31.81
28.53
23.10
16.43
9.92
4.83
1.86
0.89
1.25
2.17
3.11
3.92
4.72
5.58
6.36
6.75
6.52
5.65
4.37
2.89
1.14
-1.32
-5.01
-10.12
-16.23
-22.42
-27.65
-31.33
-33.55
-34.95
-36.30
-38.09
-40.37
-42.96
-45.85
-49.31
-53.70
-59.04
-64.58
-68.82
-70.04
-67.04
-59.70
-49.13
-37.18
-25.80
-16.32
-9.23
-4.32
-0.97
1.36
3.05
4.18
4.68
4.48
3.60
2.26
0.82
-0.29
-0.76
-0.57
0.01
0.57
0.69
0.21
-0.79
-2.11
-3.56
-5.06
-6.64
-8.31
-10.02
-11.61
-12.96
-14.02
-14.88
-15.70
-16.59
-17.62
-18.67
-19.56
-20.03
-19.90
-19.13
-17.97
-16.93
-16.64
-17.59
-19.85
-22.84
-25.47
-26.47
-24.87
-20.46
-13.85
-6.26
0.93
6.62
10.31
12.03
12.14
11.07
9.11
6.45
3.27
-0.11
-3.24
-5.65
-7.06
-7.48
-7.25
-6.79
-6.41
-6.19
-5.98
-5.63
-5.18
-4.91
-5.21
-6.43
-8.63
-11.49
-14.51
-17.12
-19.02
-20.22
-20.96
-21.52
-22.10
-22.76
-23.38
-23.88
-24.26
-24.68
-25.35
-26.52
-28.33
-30.84
-34.02
-37.71
-41.54
-44.90
-46.98
-46.89
-43.98
-38.09
-29.68
-19.70
-9.35
0.24
8.33
14.56
18.91
21.53
22.66
22.59
21.80
20.90
20.61
21.54
23.96
27.64
31.97
36.09
39.24
40.94
41.16
40.21
38.56
36.64
34.61
32.37
29.59
25.97
21.36
15.90
9.89
3.71
-2.42
-8.43
-14.34
-20.16
-25.80
-31.14
-36.05
-40.50
-44.59
-48.42
-52.16
-55.95
-59.98
-64.45
-69.37
-74.27
-78.10
-79.34
-76.50
-68.77
-56.45
-40.93
-24.26
-8.34
5.56
16.96
25.85
32.29
36.12
37.14
35.33
31.20
25.74
20.16
15.46
12.17
10.35
9.75
10.07
11.03
12.44
14.10
15.73
17.00
17.67
17.58
16.72
15.14
12.99
10.41
7.59
4.63
1.50
-1.97
-6.01
-10.80
-16.34
-22.33
-28.28
-33.62
-37.85
-40.70
-42.16
-42.54
-42.42
-42.61
-43.88
-46.77
-51.25
-56.57
-61.36
-63.90
-62.63
-56.63
-45.89
-31.43
-15.01
1.29
15.60
26.66
34.05
38.13
39.68
39.65
38.85
37.96
37.59
38.29
40.55
44.50
49.79
55.56
60.64
64.03
65.23
64.41
62.25
59.63
57.25
55.52
54.40
53.64
52.87
51.79
50.23
48.17
45.68
42.82
39.55
35.72
31.18
25.91
20.13
14.25
8.74
3.91
-0.22
-3.95
-7.79
-12.28
-17.81
-24.53
-32.15
-39.98
-46.87
-51.45
-52.42
-49.06
-41.46
-30.62
-18.18
-5.93
4.67
12.82
18.35
21.57
22.98
23.06
22.23
20.88
19.44
18.33
17.90
18.25
19.31
20.79
22.49
24.30
26.29
28.52
30.93
33.26
35.09
36.06
35.93
34.69
32.39
29.04
24.62
18.97
12.08
4.07
-4.66
-13.64
-22.37
-30.53
-37.99
-44.80
-51.16
-57.34
-63.65
-70.29
-77.25
-84.07
-89.86
-93.37
-93.37
-89.06
-80.43
-68.31
-54.17
-39.67
-26.26
-14.88
-5.91
0.64
4.96
7.34
8.09
7.60
6.38
4.96
3.87
3.53
4.15
5.69
7.85
10.16
12.08
13.19
13.30
12.39
10.61
8.08
4.87
1.01
-3.42
-8.18
-12.93
-17.33
-21.20
-24.58
-27.61
-30.37
-32.81
-34.73
-35.91
-36.32
-36.20
-36.06
-36.59
-38.42
-41.91
-46.91
-52.58
-57.49
-59.88
-58.19
-51.61
-40.43
-25.95
-10.10
5.18
18.48
29.10
36.97
42.29
45.37
46.51
46.12
44.77
43.18
42.01
41.70
42.36
43.85
45.97
48.58
51.68
55.32
59.40
63.55
67.23
69.85
71.02
70.74
69.46
67.94
66.97
67.06
68.21
69.88
71.16
71.18
69.46
66.04
61.49
56.55
51.78
47.31
42.84
37.78
31.57
23.83
14.56
4.15
-6.58
-16.48
-24.28
-28.97
-30.15
-28.29
-24.59
-20.60
-17.58
-16.10
-16.02
-16.72
-17.62
-18.48
-19.39
-20.60
-22.19
-23.92
-25.38
-26.16
-26.06
-25.15
-23.67
-21.94
-20.26
-18.94
-18.22
-18.32
-19.31
-21.07
-23.33
-25.74
-28.06
-30.25
-32.45
-34.91
-37.73
-40.81
-43.78
-46.21
-47.79
-48.49
-48.65
-48.82
-49.59
-51.47
-54.75
-59.59
-65.90
-73.34
-81.13
-88.08
-92.68
-93.48
-89.57
-81.01
-68.91
-55.20
-42.03
-31.12
-23.28
-18.33
-15.33
-13.15
-10.81
-7.80
-4.05
0.25
4.81
9.27
13.30
16.49
18.50
19.30
19.35
19.64
21.32
25.22
31.27
38.36
44.71
48.59
49.05
46.30
41.54
36.34
31.95
28.88
26.93
25.56
24.34
23.17
22.17
21.34
20.37
18.55
15.00
8.93
-0.02
-11.65
-25.08
-38.86
-51.10
-59.86
-63.56
-61.48
-54.02
-42.59
-29.24
-15.95
-4.10
5.72
13.59
19.83
24.69
28.15
30.08
30.48
29.72
28.55
27.94
28.68
31.09
34.85
39.14
42.96
45.55
46.64
46.44
45.44
44.07
42.53
40.75
38.56
35.93
33.10
30.44
28.20
26.34
24.40
21.75
17.90
12.81
6.95
1.15
-3.80
-7.47
-9.99
-12.01
-14.45
-18.24
-23.97
-31.77
-41.16
-51.08
-59.97
-66.06
-67.73
-64.07
-55.14
-42.12
-26.95
-11.78
1.57
12.10
19.55
24.25
26.67
27.30
26.53
24.82
22.86
21.49
21.54
23.49
27.29
32.32
37.65
42.30
45.60
47.26
47.31
46.00
43.62
40.39
36.52
32.24
27.77
23.30
18.91
14.51
9.96
5.11
-0.04
-5.31
-10.35
-14.75
-18.25
-20.78
-22.67
-24.50
-27.07
-31.15
-37.12
-44.78
-53.11
-60.45
-64.82
-64.57
-58.87
-48.13
-33.83
-18.07
-2.90
10.23
20.76
28.86
34.98
39.51
42.61
44.23
44.42
43.44
41.88
40.40
39.54
39.49
40.04
40.74
41.11
40.81
39.74
38.02
35.80
33.24
30.35
27.16
23.65
19.89
15.95
11.96
7.98
4.08
0.28
-3.43
-7.03
-10.52
-13.87
-17.14
-20.37
-23.72
-27.42
-31.80
-37.19
-43.70
-50.98
-58.08
-63.52
-65.65
-63.24
-55.93
-44.44
-30.35
-15.63
-2.00
9.45
18.42
25.15
30.07
33.52
35.63
36.43
36.03
34.77
33.17
31.80
31.03
30.92
31.23
31.61
31.84
31.89
31.90
31.93
31.87
31.33
29.87
27.17
23.27
18.57
13.66
9.18
5.52
2.73
0.55
-1.46
-3.72
-6.50
-9.84
-13.55
-17.38
-21.12
-24.73
-28.31
-32.09
-36.29
-41.12
-46.57
-52.21
-57.24
-60.46
-60.61
-56.83
-48.97
-37.82
-24.92
-12.00
-0.51
8.79
15.84
21.01
24.70
27.14
28.36
28.37
27.39
25.86
24.38
23.45
23.26
23.67
24.28
24.66
24.56
23.99
23.14
22.19
21.20
20.01
18.40
16.23
13.54
10.61
7.85
5.55
3.80
2.46
1.17
-0.43
-2.62
-5.51
-9.02
-12.90
-16.76
-20.23
-23.01
-25.05
-26.64
-28.34
-30.81
-34.55
-39.68
-45.84
-52.12
-57.29
-60.02
-59.22
-54.41
-45.93
-34.90
-22.89
-11.54
-2.03
5.12
10.04
13.24
15.21
16.33
16.71
16.43
15.63
14.64
13.88
13.71
14.33
15.64
17.33
18.99
20.23
20.77
20.56
19.67
18.27
16.54
14.68
12.77
10.85
8.96
7.12
5.43
3.99
2.90
2.10
1.36
0.37
-1.19
-3.43
-6.15
-9.03
-11.70
-14.00
-16.07
-18.21
-20.76
-24.00
-28.06
-32.83
-38.01
-42.89
-46.48
-47.65
-45.47
-39.68
-30.88
-20.39
-9.79
-0.39
7.15
12.82
16.97
19.87
21.60
22.07
21.36
19.81
18.05
16.77
16.37
16.86
17.88
18.93
19.64
19.90
19.78
19.41
18.84
18.00
16.76
15.06
12.93
10.49
7.88
5.28
2.82
0.65
-1.15
-2.58
-3.75
-4.91
-6.38
-8.38
-10.94
-13.84
-16.69
-19.15
-21.08
-22.63
-24.21
-26.31
-29.30
-33.28
-38.02
-42.88
-47.01
-49.37
-49.08
-45.64
-39.12
-30.21
-20.04
-9.90
-0.81
6.62
12.26
16.29
18.97
20.54
21.15
21.00
20.34
19.49
18.79
18.46
18.58
19.09
19.83
20.65
21.43
22.06
22.48
22.59
22.32
21.67
20.62
19.23
17.52
15.50
13.18
10.61
7.95
5.41
3.25
1.55
0.23
-1.00
-2.48
-4.52
-7.18
-10.33
-13.59
-16.58
-19.02
-20.85
-22.23
-23.50
-25.04
-27.19
-30.19
-34.10
-38.64
-43.17
-46.67
-48.06
-46.48
-41.66
-34.01
-24.55
-14.55
-5.15
2.87
9.17
13.79
16.93
18.86
19.84
20.10
19.87
19.33
18.68
18.10
17.78
17.84
18.28
18.97
19.68
20.23
20.53
20.59
20.50
20.31
19.96
19.29
18.09
16.22
13.73
10.85
8.01
5.62
3.93
2.90
2.19
1.34
-0.11
-2.34
-5.24
-8.47
-11.63
-14.43
-16.76
-18.67
-20.40
-22.18
-24.31
-27.05
-30.58
-34.93
-39.77
-44.42
-47.88
-49.07
-47.20
-42.04
-34.12
-24.53
-14.64
-5.58
1.97
7.89
12.35
15.60
17.77
18.84
18.83
17.98
16.72
15.57
14.95
15.01
15.66
16.61
17.61
18.48
19.21
19.82
20.28
20.49
20.25
19.38
17.82
15.63
13.04
10.31
7.67
5.30
3.26
1.52
0.04
-1.29
-2.61
-4.07
-5.83
-7.95
-10.41
-13.02
-15.57
-17.79
-19.63
-21.18
-22.74
-24.72
-27.52
-31.35
-36.09
-41.18
-45.71
-48.57
-48.81
-45.90
-39.95
-31.67
-22.15
-12.52
-3.70
3.72
9.49
13.60
16.14
17.25
17.18
16.25
14.88
13.53
12.64
12.51
13.22
14.62
16.36
18.04
19.30
19.97
20.07
19.73
19.08
18.17
16.94
15.30
13.23
10.86
8.40
6.07
3.99
2.05
0.02
-2.39
-5.31
-8.64
-12.09
-15.32
-18.08
-20.36
-22.35
-24.34
-26.69
-29.74
-33.72
-38.74
-44.55
-50.41
-55.15
-57.42
-56.14
-50.88
-42.14
-31.15
-19.45
-8.45
0.90
8.10
13.05
15.84
16.76
16.22
14.81
13.23
12.10
11.86
12.60
14.18
16.22
18.31
20.13
21.51
22.45
23.00
23.23
23.07
22.37
20.99
18.86
16.10
12.97
9.78
6.70
3.77
0.82
-2.38
-6.03
-10.21
-14.78
-19.44
-23.78
-27.42
-30.14
-32.04
-33.51
-35.22
-37.89
-41.99
-47.54
-53.94
-60.00
-64.22
-65.13
-61.77
-53.96
-42.42
-28.60
-14.21
-0.79
10.60
19.58
26.30
31.17
34.66
37.11
38.70
39.55
39.79
39.63
39.37
39.23
39.31
39.58
39.91
40.15
40.19
40.01
39.59
38.86
37.70
35.92
33.45
30.34
26.81
23.15
19.63
16.39
13.43
10.60
7.68
4.47
0.89
-3.04
-7.13
-11.14
-14.89
-18.38
-21.83
-25.65
-30.32
-36.15
-43.06
-50.45
-57.19
-61.80
-62.82
-59.36
-51.36
-39.75
-26.13
-12.30
0.27
10.76
19.00
25.27
29.93
33.25
35.39
36.48
36.79
36.70
36.66
37.01
37.82
38.93
40.01
40.73
40.93
40.67
40.14
39.54
38.97
38.26
37.11
35.22
32.46
28.96
25.10
21.30
17.91
14.93
12.14
9.20
5.81
1.94
-2.17
-6.15
-9.70
-12.74
-15.48
-18.28
-21.58
-25.77
-31.08
-37.57
-44.94
-52.45
-58.86
-62.62
-62.34
-57.26
-47.65
-34.79
-20.58
-6.95
4.76
14.02
21.01
26.20
30.00
32.58
33.97
34.27
33.79
33.11
32.83
33.37
34.81
36.82
38.89
40.51
41.41
41.56
41.12
40.28
39.15
37.70
35.78
33.25
30.10
26.46
22.65
19.04
15.92
13.35
11.15
8.92
6.23
2.80
-1.32
-5.82
-10.16
-13.91
-16.91
-19.38
-21.83
-24.92
-29.20
-34.89
-41.79
-49.17
-55.86
-60.41
-61.51
-58.36
-51.00
-40.34
-27.85
-15.16
-3.55
6.27
14.13
20.17
24.57
27.50
29.02
29.36
28.89
28.14
27.67
27.87
28.88
30.54
32.46
34.19
35.34
35.71
35.31
34.32
32.93
31.23
29.22
26.80
23.89
20.56
17.06
13.73
10.86
8.50
6.46
4.39
1.99
-0.81
-3.86
-6.87
-9.61
-12.09
-14.51
-17.22
-20.54
-24.66
-29.55
-34.96
-40.38
-44.99
-47.75
-47.62
-43.95
-36.69
-26.64
-15.15
-3.74
6.43
14.77
21.25
26.15
29.71
32.02
33.05
32.86
31.75
30.26
28.97
28.33
28.46
29.18
30.12
30.88
31.20
30.98
30.21
28.92
27.13
24.79
21.90
18.50
14.79
11.04
7.61
4.74
2.47
0.59
-1.31
-3.65
-6.69
-10.39
-14.41
-18.31
-21.73
-24.56
-27.06
-29.70
-32.97
-37.27
-42.66
-48.79
-54.89
-59.83
-62.37
-61.45
-56.60
-48.10
-36.99
-24.78
-12.99
-2.74
5.47
11.76
16.54
20.20
22.97
24.88
25.88
26.07
25.73
25.31
25.23
25.74
26.85
28.26
29.56
30.35
30.42
29.74
28.46
26.78
24.84
22.71
20.34
17.67
14.77
11.79
9.03
6.72
4.88
3.29
1.58
-0.66
-3.62
-7.21
-11.02
-14.58
-17.54
-19.83
-21.73
-23.70
-26.25
-29.73
-34.27
-39.71
-45.59
-51.15
-55.35
-57.12
-55.52
-50.11
-41.21
-29.84
-17.56
-5.97
3.75
11.08
16.22
19.71
22.18
23.97
25.16
25.71
25.63
25.10
24.49
24.14
24.26
24.82
25.64
26.44
27.02
27.25
27.07
26.48
25.45
24.00
22.17
20.01
17.64
15.17
12.69
10.28
8.05
6.03
4.21
2.47
0.57
-1.75
-4.66
-8.15
-11.96
-15.69
-18.97
-21.59
-23.65
-25.51
-27.59
-30.29
-33.81
-38.13
-43.02
-47.98
-52.27
-54.94
-55.05
-51.92
-45.47
-36.26
-25.43
-14.36
-4.25
4.10
10.48
15.07
18.23
20.28
21.44
21.83
21.62
21.07
20.60
20.56
21.15
22.27
23.54
24.47
24.71
24.19
23.15
21.97
20.98
20.22
19.50
18.47
16.85
14.58
11.84
8.99
6.41
4.30
2.66
1.22
-0.36
-2.39
-4.97
-7.98
-11.11
-14.02
-16.45
-18.36
-19.89
-21.37
-23.21
-25.80
-29.40
-34.02
-39.28
-44.38
-48.24
-49.67
-47.82
-42.45
-34.12
-24.02
-13.59
-4.04
3.92
10.12
14.78
18.12
20.27
21.24
21.09
20.09
18.72
17.54
16.95
17.11
17.87
18.93
19.94
20.65
20.98
20.96
20.66
20.15
19.39
18.28
16.67
14.42
11.55
8.28
5.02
2.17
-0.03
-1.66
-3.10
-4.84
-7.24
-10.35
-13.88
-17.35
-20.32
-22.63
-24.44
-26.23
-28.52
-31.77
-36.19
-41.63
-47.58
-53.12
-57.06
-58.19
-55.61
-49.13
-39.39
-27.77
-15.91
-5.31
3.23
9.59
14.22
17.68
20.38
22.37
23.52
23.76
23.24
22.38
21.70
21.59
22.15
23.19
24.27
25.04
25.28
25.09
24.69
24.31
24.01
23.66
22.93
21.48
19.15
16.02
12.46
8.97
6.00
3.77
2.18
0.84
-0.76
-3.07
-6.27
-10.23
-14.55
-18.73
-22.42
-25.49
-28.12
-30.68
-33.61
-37.33
-42.05
-47.64
-53.50
-58.57
-61.49
-61.01
-56.45
-48.05
-36.95
-24.82
-13.24
-3.26
4.80
11.18
16.32
20.51
23.75
25.91
26.95
27.06
26.66
26.30
26.43
27.23
28.57
30.07
31.28
31.90
31.86
31.34
30.60
29.85
29.05
27.95
26.23
23.70
20.48
16.94
13.60
10.80
8.64
6.89
5.21
3.24
0.80
-2.11
-5.36
-8.77
-12.19
-15.48
-18.61
-21.57
-24.46
-27.47
-30.85
-34.91
-39.87
-45.74
-52.10
-58.11
-62.52
-64.03
-61.68
-55.26
-45.42
-33.55
-21.29
-10.02
-0.53
7.06
13.03
17.75
21.48
24.25
26.01
26.82
26.91
26.67
26.53
26.82
27.64
28.90
30.31
31.55
32.37
32.67
32.51
32.00
31.27
30.35
29.16
27.55
25.40
22.66
19.40
15.84
12.25
8.96
6.21
4.11
2.50
1.04
-0.73
-3.14
-6.27
-9.93
-13.72
-17.26
-20.37
-23.10
-25.73
-28.61
-32.04
-36.24
-41.19
-46.61
-51.83
-55.84
-57.46
-55.74
-50.25
-41.38
-30.21
-18.29
-7.01
2.59
10.12
15.70
19.66
22.36
24.02
24.79
24.82
24.40
23.88
23.64
23.87
24.55
25.50
26.48
27.32
27.98
28.50
28.85
28.91
28.42
27.16
25.02
22.08
18.63
14.97
11.41
8.09
5.05
2.22
-0.50
-3.21
-5.93
-8.66
-11.32
-13.85
-16.23
-18.58
-21.13
-24.20
-28.07
-32.82
-38.26
-43.81
-48.50
-51.19
-50.83
-46.82
-39.26
-28.99
-17.42
-6.04
3.91
11.77
17.42
21.09
23.13
23.85
23.55
22.57
21.34
20.38
20.15
20.85
22.37
24.33
26.21
27.62
28.34
28.40
27.95
27.07
25.70
23.71
21.00
17.62
13.85
10.06
6.58
3.56
0.90
-1.69
-4.47
-7.62
-11.14
-14.89
-18.68
-22.43
-26.18
-30.11
-34.51
-39.66
-45.69
-52.36
-58.99
-64.45
-67.44
-66.82
-62.07
-53.44
-41.97
-29.17
-16.49
-4.99
4.78
12.74
18.98
23.60
26.63
28.14
28.43
28.00
27.49
27.47
28.29
29.97
32.20
34.55
36.59
38.03
38.73
38.60
37.65
35.87
33.32
30.14
26.61
23.00
19.57
16.39
13.42
10.44
7.24
3.66
-0.32
-4.59
-8.91
-13.04
-16.82
-20.26
-23.60
-27.34
-32.11
-38.47
-46.59
-56.01
-65.60
-73.62
-78.22
-77.98
-72.33
-61.79
-47.77
-32.16
-16.70
-2.62
9.49
19.48
27.37
33.14
36.72
38.27
38.19
37.24
36.26
35.96
36.58
37.93
39.57
41.03
42.06
42.62
42.83
42.72
42.20
41.03
39.03
36.20
32.77
29.16
25.76
22.81
20.21
17.61
14.53
10.62
5.80
0.37
-5.11
-10.09
-14.21
-17.44
-20.12
-22.81
-26.18
-30.80
-36.95
-44.41
-52.34
-59.31
-63.61
-63.78
-59.04
-49.70
-37.01
-22.78
-8.78
3.70
14.06
22.24
28.43
32.87
35.69
37.04
37.14
36.38
35.31
34.49
34.36
35.13
36.70
38.75
40.80
42.39
43.20
43.09
42.08
40.24
37.70
34.59
31.05
27.27
23.53
20.07
16.98
14.21
11.51
8.58
5.25
1.56
-2.26
-5.93
-9.26
-12.23
-15.06
-18.09
-21.67
-26.09
-31.46
-37.59
-43.89
-49.40
-52.91
-53.29
-49.83
-42.56
-32.25
-20.22
-7.97
3.28
12.71
20.01
25.16
28.33
29.74
29.68
28.55
26.87
25.21
24.09
23.85
24.58
26.10
27.97
29.71
30.86
31.15
30.52
29.09
27.02
24.48
21.56
18.35
14.95
11.52
8.24
5.21
2.38
-0.40
-3.27
-6.29
-9.35
-12.29
-15.02
-17.61
-20.34
-23.57
-27.65
-32.78
-38.86
-45.32
-51.19
-55.18
-56.05
-52.99
-46.00
-35.91
-24.14
-12.24
-1.42
7.74
15.15
21.01
25.45
28.46
29.97
30.02
28.98
27.45
26.10
25.39
25.47
26.13
27.03
27.81
28.30
28.51
28.48
28.25
27.69
26.50
24.41
21.28
17.27
12.85
8.68
5.30
2.89
1.19
-0.41
-2.54
-5.57
-9.42
-13.63
-17.64
-21.08
-23.90
-26.38
-28.96
-32.11
-36.19
-41.41
-47.67
-54.48
-60.84
-65.40
-66.70
-63.72
-56.25
-45.01
-31.52
-17.56
-4.69
6.13
14.63
21.03
25.73
29.08
31.24
32.31
32.43
31.91
31.19
30.75
30.88
31.57
32.50
33.19
33.30
32.75
31.75
30.59
29.39
28.04
26.19
23.51
19.95
15.76
11.49
7.67
4.66
2.48
0.84
-0.70
-2.61
-5.14
-8.30
-11.88
-15.50
-18.81
-21.62
-23.99
-26.27
-28.94
-32.49
-37.18
-42.97
-49.30
-55.22
-59.42
-60.63
-57.93
-51.16
-40.96
-28.68
-15.96
-4.18
5.79
13.72
19.80
24.32
27.46
29.28
29.79
29.21
27.95
26.57
25.60
25.38
25.89
26.89
27.96
28.70
28.81
28.24
27.14
25.77
24.38
23.02
21.57
19.75
17.29
14.18
10.63
7.06
3.92
1.46
-0.38
-1.93
-3.63
-5.81
-8.57
-11.71
-14.91
-17.78
-20.14
-22.02
-23.73
-25.75
-28.57
-32.56
-37.80
-43.99
-50.39
-55.84
-59.04
-58.81
-54.53
-46.41
-35.51
-23.40
-11.71
-1.64
6.30
12.20
16.50
19.56
21.54
22.41
22.14
21.00
19.51
18.37
18.06
18.74
20.16
21.78
23.13
23.90
24.07
23.75
23.07
22.08
20.68
18.76
16.27
13.33
10.21
7.26
4.79
2.90
1.43
-0.02
-1.93
-4.59
-7.98
-11.71
-15.19
-17.94
-19.78
-20.98
-22.09
-23.78
-26.59
-30.73
-36.02
-41.90
-47.46
-51.56
-53.08
-51.16
-45.56
-36.77
-25.93
-14.50
-3.86
5.07
11.94
16.84
20.04
21.81
22.28
21.58
19.97
17.95
16.13
15.10
15.17
16.27
18.02
19.84
21.26
22.04
22.21
21.87
21.11
19.85
17.92
15.24
11.91
8.31
4.95
2.20
0.12
-1.59
-3.41
-5.77
-8.83
-12.36
-15.92
-19.10
-21.68
-23.79
-25.86
-28.42
-31.96
-36.75
-42.75
-49.50
-56.15
-61.52
-64.33
-63.57
-58.79
-50.35
-39.34
-27.24
-15.52
-5.20
3.32
10.12
15.53
19.83
23.11
25.31
26.41
26.57
26.17
25.70
25.58
26.00
26.87
27.95
28.96
29.74
30.21
30.37
30.20
29.57
28.28
26.14
23.13
19.39
15.28
11.22
7.59
4.55
2.04
-0.26
-2.74
-5.68
-9.20
-13.14
-17.18
-21.00
-24.43
-27.56
-30.71
-34.28
-38.68
-44.11
-50.47
-57.22
-63.38
-67.65
-68.72
-65.70
-58.47
-47.80
-35.14
-22.10
-9.97
0.53
9.27
16.44
22.20
26.60
29.57
31.16
31.67
31.58
31.49
31.83
32.80
34.25
35.81
37.04
37.61
37.45
36.71
35.69
34.66
33.66
32.48
30.75
28.17
24.67
20.51
16.20
12.23
8.91
6.25
3.98
1.69
-0.96
-4.11
-7.70
-11.45
-15.08
-18.42
-21.43
-24.34
-27.48
-31.28
-36.08
-42.06
-48.94
-56.02
-62.09
-65.72
-65.64
-61.16
-52.47
-40.65
-27.29
-14.05
-2.19
7.64
15.30
20.98
24.95
27.45
28.70
28.97
28.68
28.30
28.29
28.94
30.26
31.98
33.67
34.94
35.56
35.56
35.10
34.32
33.24
31.69
29.48
26.52
22.97
19.20
15.64
12.55
9.95
7.61
5.22
2.52
-0.56
-3.91
-7.28
-10.43
-13.20
-15.56
-17.74
-20.16
-23.31
-27.66
-33.33
-39.91
-46.43
-51.48
-53.60
-51.71
-45.50
-35.57
-23.25
-10.25
1.86
11.97
19.61
24.84
27.99
29.48
29.72
29.11
28.07
27.06
26.50
26.62
27.42
28.63
29.85
30.69
30.92
30.53
29.68
28.58
27.39
26.15
24.72
22.91
20.56
17.64
14.23
10.52
6.60
2.45
-1.98
-6.71
-11.58
-16.27
-20.39
-23.74
-26.42
-28.85
-31.66
-35.43
-40.49
-46.74
-53.64
-60.20
-65.13
-67.12
-65.17
-58.89
-48.75
-35.95
-22.15
-8.96
2.49
11.73
18.88
24.30
28.38
31.30
33.10
33.85
33.75
33.18
32.59
32.39
32.76
33.62
34.78
35.91
36.75
37.08
36.70
35.51
33.45
30.58
27.10
23.28
19.41
15.71
12.19
8.70
4.97
0.78
-3.94
-9.00
-14.07
-18.77
-22.89
-26.45
-29.68
-33.01
-36.93
-41.86
-48.08
-55.38
-63.00
-69.55
-73.35
-72.87
-67.35
-57.12
-43.58
-28.65
-14.21
-1.49
9.03
17.51
24.29
29.65
33.65
36.25
37.52
37.72
37.36
36.97
36.97
37.52
38.47
39.48
40.22
40.50
40.30
39.73
38.88
37.67
35.90
33.35
29.91
25.78
21.41
17.30
13.81
10.95
8.37
5.55
2.06
-2.19
-6.90
-11.55
-15.70
-19.17
-22.16
-25.14
-28.67
-33.22
-39.06
-46.15
-53.96
-61.46
-67.22
-69.66
-67.57
-60.56
-49.30
-35.35
-20.74
-7.18
4.23
13.24
20.13
25.32
29.09
31.52
32.64
32.60
31.86
31.07
30.84
31.53
33.04
34.94
36.63
37.66
37.85
37.29
36.23
34.79
32.99
30.64
27.61
23.91
19.82
15.70
11.93
8.66
5.74
2.91
-0.11
-3.44
-6.98
-10.49
-13.76
-16.71
-19.45
-22.27
-25.53
-29.58
-34.63
-40.67
-47.30
-53.60
-58.26
-59.80
-57.06
-49.67
-38.27
-24.39
-9.92
3.41
14.54
23.12
29.28
33.29
35.33
35.50
34.08
31.60
28.90
26.85
26.05
26.62
28.22
30.28
32.19
33.51
34.02
33.60
32.22
29.89
26.72
22.96
18.98
15.17
11.79
8.90
6.27
3.54
0.34
-3.51
-7.94
-12.59
-17.07
-21.04
-24.43
-27.48
-30.62
-34.39
-39.26
-45.43
-52.73
-60.44
-67.30
-71.67
-71.98
-67.28
-57.55
-43.93
-28.26
-12.62
1.37
12.80
21.55
27.93
32.35
35.10
36.36
36.33
35.39
34.12
33.10
32.78
33.28
34.39
35.73
36.90
37.58
37.68
37.16
36.02
34.19
31.59
28.15
23.96
19.32
14.61
10.29
6.60
3.53
0.75
-2.18
-5.71
-9.94
-14.66
-19.40
-23.68
-27.25
-30.27
-33.22
-36.83
-41.76
-48.40
-56.60
-65.50
-73.57
-78.87
-79.59
-74.60
-63.97
-49.02
-31.93
-15.11
-0.40
11.30
20.05
26.51
31.40
35.19
37.97
39.63
40.13
39.71
38.89
38.25
38.21
38.83
39.81
40.69
41.09
40.86
40.16
39.19
38.04
36.59
34.53
31.54
27.51
22.70
17.65
13.02
9.24
6.30
3.74
0.89
-2.82
-7.53
-12.90
-18.27
-23.05
-26.94
-30.10
-33.07
-36.52
-41.03
-46.95
-54.19
-62.20
-69.85
-75.63
-77.90
-75.38
-67.64
-55.31
-39.97
-23.67
-8.26
5.01
15.67
23.86
29.96
34.31
37.02
38.18
37.94
36.72
35.20
34.08
33.86
34.64
36.07
37.53
38.45
38.51
37.80
36.64
35.36
34.07
32.55
30.45
27.47
23.62
19.28
15.02
11.27
8.13
5.34
2.42
-0.95
-4.78
-8.77
-12.48
-15.65
-18.34
-20.89
-23.79
-27.54
-32.45
-38.63
-45.81
-53.24
-59.66
-63.45
-63.10
-57.76
-47.61
-33.97
-18.89
-4.48
7.69
16.99
23.56
27.94
30.61
31.79
31.52
29.91
27.39
24.74
22.83
22.26
23.12
24.96
27.05
28.71
29.56
29.54
28.74
27.25
25.07
22.21
18.73
14.84
10.85
6.95
3.21
-0.45
-4.20
-8.08
-12.05
-15.93
-19.50
-22.68
-25.53
-28.28
-31.30
-35.01
-39.83
-45.95
-53.10
-60.43
-66.48
-69.48
-67.97
-61.28
-49.87
-35.23
-19.41
-4.38
8.46
18.49
25.75
30.58
33.39
34.52
34.31
33.13
31.50
29.96
28.95
28.68
29.09
29.92
30.84
31.55
31.84
31.57
30.66
29.01
26.60
23.49
19.87
15.97
11.98
8.00
4.03
-0.05
-4.32
-8.80
-13.40
-17.98
-22.40
-26.58
-30.49
-34.25
-38.04
-42.17
-47.06
-53.12
-60.52
-68.87
-77.00
-83.07
-84.98
-81.19
-71.34
-56.53
-38.99
-21.29
-5.51
7.34
17.27
24.90
30.87
35.44
38.55
40.11
40.28
39.60
38.82
38.61
39.26
40.63
42.24
43.55
44.23
44.18
43.55
42.50
41.06
39.06
36.24
32.44
27.75
22.61
17.56
13.11
9.43
6.29
3.22
-0.28
-4.46
-9.16
-14.03
-18.60
-22.64
-26.19
-29.59
-33.27
-37.70
-43.25
-50.01
-57.67
-65.33
-71.53
-74.56
-72.93
-65.93
-54.03
-38.76
-22.26
-6.58
6.87
17.62
25.87
32.12
36.79
39.98
41.65
41.82
40.76
39.05
37.39
36.43
36.43
37.30
38.63
39.93
40.78
40.95
40.40
39.15
37.23
34.62
31.34
27.53
23.40
19.28
15.45
12.05
8.99
6.05
2.94
-0.49
-4.19
-7.99
-11.66
-15.09
-18.37
-21.75
-25.57
-30.16
-35.75
-42.30
-49.30
-55.72
-60.07
-60.79
-56.81
-48.02
-35.42
-20.86
-6.39
6.41
16.70
24.41
29.82
33.21
34.75
34.54
32.87
30.36
27.83
26.09
25.62
26.44
28.22
30.37
32.36
33.81
34.52
34.37
33.32
31.31
28.39
24.73
20.62
16.39
12.35
8.65
5.23
1.93
-1.46
-5.09
-9.00
-13.05
-17.05
-20.83
-24.28
-27.56
-30.98
-35.06
-40.30
-46.96
-54.81
-62.90
-69.71
-73.44
-72.55
-66.34
-55.16
-40.42
-24.13
-8.30
5.55
16.71
25.12
31.12
35.13
37.49
38.44
38.27
37.38
36.34
35.67
35.75
36.60
37.98
39.42
40.49
40.94
40.74
39.99
38.80
37.12
34.79
31.63
27.58
22.86
17.86
13.08
8.83
5.14
1.71
-1.90
-6.03
-10.69
-15.59
-20.24
-24.27
-27.57
-30.40
-33.28
-36.83
-41.61
-47.91
-55.67
-64.22
-72.32
-78.20
-80.06
-76.57
-67.45
-53.63
-37.03
-19.97
-4.47
8.34
18.23
25.69
31.41
35.86
39.16
41.22
42.01
41.79
41.10
40.60
40.68
41.31
42.08
42.45
42.07
40.98
39.55
38.16
36.98
35.77
34.02
31.24
27.22
22.26
16.97
12.08
8.08
5.02
2.50
-0.05
-3.14
-6.95
-11.35
-15.94
-20.31
-24.20
-27.60
-30.75
-34.05
-37.98
-42.97
-49.26
-56.69
-64.54
-71.47
-75.73
-75.65
-70.20
-59.51
-44.89
-28.47
-12.53
1.24
12.08
20.13
25.97
30.20
33.07
34.62
34.88
34.13
32.98
32.12
32.11
33.09
34.75
36.54
37.87
38.42
38.14
37.26
36.00
34.50
32.67
30.32
27.31
23.72
19.87
16.17
12.94
10.18
7.60
4.73
1.23
-2.94
-7.49
-11.97
-15.93
-19.22
-21.97
-24.55
-27.43
-31.05
-35.69
-41.37
-47.77
-54.06
-58.98
-61.05
-59.03
-52.39
-41.65
-28.26
-14.15
-1.13
9.64
17.82
23.62
27.49
29.72
30.39
29.54
27.36
24.39
21.46
19.37
18.67
19.44
21.28
23.49
25.36
26.35
26.20
24.91
22.65
19.72
16.39
12.92
9.52
6.27
3.13
-0.03
-3.34
-6.90
-10.63
-14.34
-17.85
-21.04
-23.97
-26.81
-29.84
-33.35
-37.66
-42.99
-49.33
-56.20
-62.53
-66.83
-67.48
-63.39
-54.40
-41.52
-26.61
-11.77
1.26
11.57
19.09
24.25
27.61
29.58
30.36
30.06
28.97
27.49
26.15
25.42
25.46
26.18
27.22
28.15
28.65
28.53
27.77
26.39
24.43
21.87
18.73
15.07
11.06
6.94
2.96
-0.78
-4.30
-7.78
-11.43
-15.36
-19.52
-23.69
-27.62
-31.16
-34.39
-37.63
-41.42
-46.33
-52.67
-60.27
-68.30
-75.24
-79.24
-78.64
-72.51
-61.06
-45.66
-28.49
-11.83
2.53
13.79
22.04
28.00
32.45
35.87
38.34
39.72
40.00
39.46
38.67
38.25
38.52
39.39
40.40
41.05
41.05
40.44
39.44
38.26
36.83
34.87
32.01
28.11
23.36
18.27
13.41
9.12
5.40
1.91
-1.76
-5.86
-10.36
-14.99
-19.48
-23.69
-27.72
-31.88
-36.54
-42.06
-48.64
-56.26
-64.38
-71.96
-77.44
-79.14
-75.79
-67.03
-53.67
-37.46
-20.55
-4.86
8.44
18.91
26.79
32.51
36.52
39.10
40.46
40.81
40.48
39.88
39.38
39.25
39.52
40.02
40.49
40.67
40.44
39.81
38.78
37.32
35.27
32.43
28.73
24.28
19.46
14.72
10.44
6.78
3.55
0.40
-3.06
-7.01
-11.34
-15.73
-19.80
-23.34
-26.46
-29.55
-33.12
-37.65
-43.42
-50.33
-57.81
-64.76
-69.72
-71.10
-67.77
-59.43
-46.89
-31.85
-16.39
-2.31
9.33
18.23
24.64
28.92
31.32
32.01
31.27
29.63
27.89
26.86
27.03
28.45
30.65
32.91
34.56
35.15
34.63
33.20
31.21
28.98
26.70
24.37
21.95
19.28
16.30
12.96
9.35
5.59
1.90
-1.55
-4.60
-7.31
-9.78
-12.27
-15.03
-18.29
-22.25
-27.07
-32.80
-39.26
-45.81
-51.34
-54.33
-53.44
-47.92
-38.10
-25.28
-11.39
1.72
12.83
21.49
27.80
32.08
34.51
35.14
34.04
31.55
28.35
25.37
23.43
22.96
23.88
25.68
27.60
29.00
29.45
28.88
27.40
25.24
22.60
19.66
16.45
12.96
9.14
4.94
0.41
-4.29
-8.92
-13.15
-16.80
-19.87
-22.59
-25.40
-28.78
-33.19
-38.89
-45.80
-53.41
-60.70
-66.27
-68.60
-66.53
-59.62
-48.47
-34.48
-19.50
-5.20
7.27
17.47
25.43
31.39
35.56
38.02
38.80
38.09
36.29
34.06
32.09
30.98
30.93
31.76
32.94
33.83
33.92
32.99
31.15
28.70
26.02
23.33
20.68
17.98
15.03
11.63
7.70
3.29
-1.39
-6.04
-10.37
-14.23
-17.68
-21.00
-24.57
-28.80
-34.00
-40.26
-47.45
-55.04
-62.10
-67.30
-69.23
-66.77
-59.51
-48.00
-33.66
-18.34
-3.79
8.80
18.97
26.83
32.73
36.97
39.74
41.13
41.33
40.70
39.71
38.86
38.45
38.54
38.98
39.48
39.75
39.55
38.77
37.35
35.32
32.73
29.69
26.35
22.85
19.30
15.79
12.29
8.74
5.07
1.16
-3.01
-7.37
-11.77
-15.98
-19.82
-23.28
-26.58
-30.13
-34.49
-40.09
-46.93
-54.39
-61.14
-65.45
-65.70
-60.98
-51.47
-38.48
-23.98
-9.96
2.18
11.91
19.38
25.03
29.18
31.87
33.05
32.78
31.46
29.76
28.41
27.92
28.37
29.50
30.80
31.72
31.91
31.22
29.72
27.64
25.21
22.63
19.99
17.27
14.33
11.06
7.40
3.41
-0.71
-4.69
-8.25
-11.31
-13.89
-16.25
-18.68
-21.48
-24.88
-29.06
-34.10
-39.94
-46.18
-51.97
-56.05
-57.02
-53.86
-46.34
-35.25
-22.17
-8.92
2.99
12.77
20.28
25.78
29.53
31.65
32.15
31.15
29.00
26.40
24.12
22.81
22.75
23.76
25.28
26.60
27.13
26.52
24.81
22.27
19.26
16.13
13.04
9.99
6.84
3.45
-0.28
-4.33
-8.52
-12.62
-16.40
-19.75
-22.74
-25.58
-28.62
-32.18
-36.57
-41.90
-47.99
-54.28
-59.74
-63.00
-62.68
-57.89
-48.57
-35.73
-21.13
-6.74
5.85
15.87
23.31
28.63
32.32
34.70
35.85
35.81
34.80
33.29
31.82
30.87
30.65
31.04
31.73
32.36
32.68
32.51
31.78
30.42
28.36
25.59
22.16
18.27
14.20
10.25
6.66
3.43
0.41
-2.68
-6.03
-9.69
-13.48
-17.13
-20.46
-23.45
-26.32
-29.44
-33.19
-37.87
-43.57
-50.04
-56.61
-62.16
-65.25
-64.54
-59.19
-49.34
-36.12
-21.41
-7.17
5.13
14.83
22.07
27.36
31.21
33.90
35.46
35.90
35.38
34.26
33.07
32.20
31.82
31.83
31.97
31.98
31.75
31.26
30.58
29.64
28.25
26.18
23.28
19.65
15.63
11.68
8.19
5.26
2.73
0.18
-2.72
-6.10
-9.82
-13.53
-16.91
-19.88
-22.61
-25.48
-28.93
-33.33
-38.84
-45.34
-52.36
-59.02
-64.10
-66.27
-64.45
-58.21
-48.03
-35.19
-21.39
-8.21
3.19
12.31
19.15
24.00
27.16
28.94
29.60
29.42
28.78
28.07
27.67
27.81
28.50
29.56
30.64
31.44
31.75
31.57
30.99
30.10
28.82
26.97
24.37
21.01
17.14
13.20
9.62
6.68
4.31
2.21
-0.04
-2.76
-6.05
-9.73
-13.47
-16.93
-19.86
-22.27
-24.38
-26.64
-29.58
-33.62
-38.83
-44.68
-50.13
-53.69
-53.97
-50.11
-42.18
-31.21
-18.83
-6.76
3.73
12.08
18.25
22.49
25.02
25.90
25.19
23.12
20.22
17.28
15.14
14.37
15.12
17.06
19.51
21.68
22.96
23.05
21.99
20.07
17.69
15.18
12.70
10.27
7.81
5.21
2.45
-0.45
-3.37
-6.22
-8.91
-11.48
-14.02
-16.69
-19.65
-23.02
-26.89
-31.32
-36.34
-41.76
-47.10
-51.45
-53.63
-52.54
-47.57
-38.91
-27.58
-15.17
-3.26
6.94
14.82
20.39
23.93
25.83
26.38
25.83
24.48
22.71
21.00
19.77
19.30
19.64
20.59
21.75
22.73
23.20
22.96
22.00
20.40
18.29
15.85
13.19
10.40
7.44
4.29
0.92
-2.69
-6.54
-10.53
-14.53
-18.40
-21.98
-25.22
-28.18
-31.10
-34.32
-38.27
-43.27
-49.37
-56.13
-62.58
-67.28
-68.72
-65.80
-58.23
-46.75
-32.89
-18.52
-5.25
5.92
14.70
21.28
26.03
29.21
31.03
31.62
31.26
30.34
29.34
28.63
28.44
28.74
29.34
29.94
30.31
30.32
29.95
29.22
28.16
26.72
24.82
22.38
19.43
16.06
12.37
8.43
4.25
-0.19
-4.84
-9.58
-14.20
-18.50
-22.40
-25.94
-29.30
-32.73
-36.53
-41.00
-46.39
-52.78
-59.79
-66.46
-71.33
-72.76
-69.54
-61.32
-48.93
-34.08
-18.87
-5.11
6.15
14.68
20.90
25.41
28.73
31.12
32.67
33.48
33.76
33.83
34.04
34.61
35.52
36.57
37.43
37.84
37.67
36.93
35.73
34.13
32.13
29.69
26.77
23.47
19.95
16.42
12.99
9.59
6.07
2.29
-1.77
-5.94
-9.96
-13.60
-16.85
-19.88
-23.04
-26.73
-31.31
-37.00
-43.71
-50.93
-57.58
-62.14
-63.06
-59.27
-50.73
-38.50
-24.45
-10.64
1.36
10.81
17.81
22.86
26.41
28.69
29.69
29.46
28.31
26.83
25.76
25.66
26.73
28.70
30.98
32.90
33.95
33.93
32.95
31.32
29.34
27.22
24.99
22.46
19.44
15.79
11.57
7.04
2.54
-1.64
-5.34
-8.62
-11.69
-14.81
-18.22
-22.13
-26.72
-32.11
-38.22
-44.59
-50.32
-54.16
-54.79
-51.30
-43.57
-32.37
-19.18
-5.75
6.43
16.40
23.80
28.68
31.30
31.93
30.89
28.63
25.82
23.24
21.61
21.36
22.44
24.30
26.20
27.40
27.49
26.49
24.76
22.77
20.79
18.80
16.44
13.26
9.01
3.83
-1.79
-7.17
-11.77
-15.40
-18.31
-21.09
-24.35
-28.63
-34.19
-40.97
-48.57
-56.18
-62.59
-66.33
-66.05
-60.95
-51.18
-37.86
-22.78
-7.86
5.42
16.29
24.68
30.91
35.35
38.20
39.52
39.38
38.11
36.28
34.60
33.69
33.81
34.83
36.27
37.51
38.02
37.56
36.13
33.92
31.15
27.96
24.44
20.60
16.45
11.99
7.27
2.33
-2.72
-7.69
-12.38
-16.60
-20.33
-23.77
-27.27
-31.31
-36.34
-42.61
-50.05
-58.09
-65.67
-71.27
-73.27
-70.40
-62.30
-49.68
-34.29
-18.26
-3.52
8.79
18.46
25.91
31.75
36.33
39.71
41.77
42.47
42.07
41.08
40.10
39.59
39.73
40.37
41.16
41.72
41.77
41.20
40.01
38.23
35.86
32.87
29.27
25.17
20.84
16.53
12.46
8.63
4.89
1.01
-3.15
-7.53
-11.93
-16.14
-20.09
-23.89
-27.83
-32.23
-37.45
-43.71
-50.98
-58.75
-65.92
-70.92
-71.98
-67.89
-58.42
-44.64
-28.52
-12.37
1.97
13.53
22.25
28.60
33.14
36.18
37.84
38.19
37.45
36.06
34.61
33.63
33.44
34.07
35.25
36.59
37.68
38.22
38.10
37.29
35.80
33.68
30.94
27.67
24.00
20.15
16.28
12.53
8.87
5.23
1.58
-2.05
-5.51
-8.66
-11.46
-14.07
-16.74
-19.78
-23.48
-27.97
-33.26
-39.11
-44.94
-49.77
-52.33
-51.37
-46.11
-36.62
-23.86
-9.52
4.64
17.27
27.84
36.48
43.62
49.52
54.05
56.80
57.46
56.22
53.86
51.51
50.14
50.11
50.96
51.70
51.29
49.15
45.36
40.43
35.02
29.50
23.87
17.90
11.38
4.35
-2.89
-9.92
-16.37
-22.07
-27.05
-31.47
-35.55
-39.48
-43.47
-47.77
-52.71
-58.56
-65.34
-72.57
-79.19
-83.72
-84.56
-80.62
-71.71
-58.72
-43.37
-27.74
-13.63
-2.17
6.33
12.10
15.60
17.26
17.40
16.35
14.58
12.78
11.67
11.81
13.37
16.03
19.09
21.74
23.35
23.66
22.76
20.99
18.69
16.10
13.27
10.12
6.55
2.55
-1.79
-6.29
-10.75
-15.01
-18.99
-22.70
-26.28
-29.89
-33.74
-38.10
-43.29
-49.58
-56.99
-65.03
-72.52
-77.71
-78.76
-74.38
-64.45
-50.08
-33.34
-16.48
-1.31
11.23
21.00
28.34
33.63
37.16
39.11
39.74
39.44
38.72
38.06
37.77
37.92
38.38
38.96
39.44
39.67
39.48
38.73
37.28
35.01
31.93
28.16
23.94
19.57
15.24
11.01
6.79
2.38
-2.37
-7.46
-12.68
-17.71
-22.24
-26.15
-29.59
-33.00
-36.96
-42.02
-48.53
-56.46
-65.25
-73.71
-80.21
-82.90
-80.34
-71.96
-58.35
-41.22
-22.84
-5.37
9.68
21.76
31.05
38.12
43.44
47.24
49.54
50.40
50.08
49.14
48.17
47.62
47.62
47.94
48.23
48.18
47.70
46.87
45.82
44.57
42.94
40.63
37.39
33.19
28.32
23.28
18.59
14.53
11.00
7.64
3.98
-0.30
-5.16
-10.26
-15.11
-19.35
-22.91
-26.10
-29.44
-33.57
-39.00
-45.94
-54.11
-62.54
-69.63
-73.46
-72.32
-65.39
-53.06
-36.99
-19.46
-2.78
11.45
22.56
30.65
36.17
39.54
40.98
40.61
38.73
35.94
33.12
31.14
30.58
31.48
33.40
35.57
37.27
38.05
37.80
36.63
34.74
32.23
29.14
25.55
21.60
17.55
13.62
9.92
6.35
2.69
-1.23
-5.46
-9.83
-14.02
-17.77
-20.94
-23.67
-26.26
-29.18
-32.96
-38.04
-44.55
-52.07
-59.52
-65.19
-67.20
-64.08
-55.38
-41.93
-25.56
-8.57
7.04
19.98
29.80
36.58
40.67
42.37
41.93
39.71
36.27
32.44
29.12
27.08
26.72
27.92
30.11
32.49
34.25
34.83
33.98
31.81
28.66
24.90
20.85
16.75
12.65
8.53
4.34
-0.01
-4.51
-9.11
-13.71
-18.17
-22.41
-26.38
-30.12
-33.75
-37.46
-41.59
-46.57
-52.80
-60.33
-68.57
-76.14
-81.05
-81.24
-75.40
-63.50
-46.95
-28.20
-9.85
6.09
18.69
27.93
34.38
38.61
40.99
41.72
40.97
39.12
36.76
34.61
33.25
33.02
33.88
35.47
37.25
38.72
39.45
39.24
38.02
35.81
32.68
28.74
24.19
19.30
14.38
9.66
5.21
0.92
-3.42
-8.00
-12.81
-17.72
-22.46
-26.86
-30.95
-34.95
-39.28
-44.48
-51.00
-58.99
-68.04
-76.94
-83.86
-86.72
-83.82
-74.59
-59.84
-41.57
-22.39
-4.63
10.25
21.83
30.50
36.91
41.60
44.74
46.38
46.59
45.72
44.33
43.06
42.37
42.38
42.92
43.58
43.99
43.89
43.19
41.88
39.95
37.33
33.96
29.85
25.17
20.24
15.41
10.90
6.71
2.56
-1.88
-6.81
-12.20
-17.72
-22.89
-27.33
-30.94
-34.00
-37.09
-40.94
-46.23
-53.28
-61.83
-70.82
-78.49
-82.67
-81.49
-74.04
-60.80
-43.57
-24.92
-7.31
7.57
19.10
27.48
33.26
36.92
38.71
38.84
37.62
35.70
33.84
32.73
32.77
33.91
35.72
37.62
39.01
39.50
38.97
37.47
35.22
32.44
29.31
25.93
22.29
18.37
14.17
9.70
5.07
0.38
-4.22
-8.57
-12.54
-16.05
-19.13
-21.98
-24.92
-28.39
-32.80
-38.47
-45.48
-53.43
-61.35
-67.70
-70.67
-68.68
-61.00
-48.12
-31.72
-14.19
2.15
15.69
25.86
32.90
37.39
39.84
40.49
39.45
37.03
33.92
31.05
29.36
29.36
30.92
33.36
35.77
37.41
37.93
37.35
35.90
33.75
30.98
27.56
23.56
19.13
14.56
10.09
5.82
1.66
-2.61
-7.14
-11.97
-16.90
-21.67
-26.06
-30.06
-33.97
-38.28
-43.58
-50.32
-58.54
-67.63
-76.28
-82.65
-84.79
-81.26
-71.62
-56.75
-38.53
-19.39
-1.54
13.55
25.29
33.84
39.70
43.36
45.19
45.47
44.54
42.87
41.05
39.63
38.96
39.15
39.99
41.10
42.07
42.50
42.15
40.89
38.67
35.57
31.74
27.44
22.95
18.44
13.97
9.42
4.63
-0.49
-5.86
-11.26
-16.43
-21.13
-25.33
-29.17
-32.91
-36.94
-41.72
-47.72
-55.24
-64.15
-73.58
-81.88
-86.92
-86.68
-80.04
-67.25
-49.96
-30.64
-11.82
4.67
18.01
28.23
35.76
41.03
44.29
45.69
45.52
44.31
42.80
41.67
41.35
41.90
43.01
44.22
45.13
45.55
45.43
44.82
43.71
41.97
39.38
35.80
31.26
26.10
20.79
15.85
11.58
7.92
4.52
0.90
-3.29
-8.12
-13.32
-18.46
-23.15
-27.24
-30.91
-34.63
-39.03
-44.68
-51.91
-60.49
-69.49
-77.28
-81.80
-81.17
-74.34
-61.61
-44.61
-25.85
-7.92
7.27
18.87
27.01
32.35
35.60
37.20
37.38
36.33
34.42
32.30
30.72
30.29
31.22
33.21
35.59
37.59
38.60
38.39
37.08
34.97
32.42
29.62
26.58
23.20
19.40
15.17
10.64
5.96
1.34
-3.03
-7.08
-10.75
-14.09
-17.24
-20.38
-23.77
-27.66
-32.33
-38.05
-44.94
-52.78
-60.73
-67.39
-70.95
-69.80
-63.10
-51.21
-35.68
-18.78
-2.75
10.81
21.21
28.50
33.13
35.54
36.04
34.89
32.47
29.44
26.63
24.86
24.65
26.04
28.48
31.15
33.12
33.72
32.72
30.32
27.02
23.43
19.94
16.70
13.54
10.17
6.30
1.86
-2.99
-7.89
-12.45
-16.44
-19.85
-22.91
-26.00
-29.57
-34.03
-39.70
-46.70
-54.80
-63.25
-70.69
-75.33
-75.42
-69.84
-58.65
-43.18
-25.67
-8.51
6.50
18.50
27.56
34.19
38.90
41.91
43.24
42.95
41.40
39.27
37.38
36.39
36.58
37.74
39.35
40.75
41.44
41.16
39.87
37.70
34.81
31.36
27.43
23.09
18.45
13.66
8.89
4.27
-0.12
-4.34
-8.51
-12.72
-16.96
-21.20
-25.37
-29.53
-33.95
-39.06
-45.36
-53.04
-61.78
-70.44
-77.22
-80.09
-77.42
-68.63
-54.46
-36.80
-18.11
-0.70
13.93
25.28
33.64
39.66
43.94
46.79
48.31
48.59
47.90
46.68
45.43
44.50
43.93
43.55
43.05
42.21
41.01
39.54
37.86
35.88
33.38
30.18
26.27
21.90
17.49
13.43
9.87
6.69
3.56
0.17
-3.64
-7.82
-12.13
-16.30
-20.15
-23.65
-27.01
-30.54
-34.72
-39.98
-46.60
-54.41
-62.56
-69.51
-73.37
-72.45
-65.92
-54.23
-39.00
-22.50
-6.92
6.32
16.72
24.53
30.31
34.48
37.22
38.54
38.55
37.59
36.20
34.96
34.29
34.27
34.71
35.24
35.55
35.49
35.10
34.53
33.85
32.96
31.63
29.52
26.49
22.62
18.33
14.16
10.60
7.82
5.59
3.43
0.79
-2.63
-6.78
-11.25
-15.51
-19.16
-22.13
-24.72
-27.50
-31.13
-36.06
-42.40
-49.63
-56.67
-61.97
-63.89
-61.24
-53.71
-42.05
-27.91
-13.29
-0.01
10.86
18.99
24.64
28.24
30.10
30.34
29.06
26.59
23.56
20.84
19.16
18.93
19.99
21.79
23.61
24.87
25.29
24.87
23.80
22.21
20.22
17.86
15.21
12.31
9.27
6.08
2.71
-0.90
-4.78
-8.80
-12.72
-16.27
-19.26
-21.69
-23.78
-25.94
-28.64
-32.36
-37.37
-43.59
-50.42
-56.66
-60.76
-61.20
-56.97
-48.06
-35.53
-21.21
-7.13
5.07
14.53
21.15
25.30
27.46
28.01
27.19
25.31
22.83
20.38
18.66
18.10
18.81
20.44
22.39
24.04
24.97
24.98
24.14
22.62
20.54
17.96
14.90
11.44
7.75
4.14
0.85
-2.03
-4.67
-7.44
-10.74
-14.70
-19.15
-23.67
-27.74
-31.06
-33.70
-36.08
-38.87
-42.76
-48.20
-55.10
-62.65
-69.36
-73.34
-72.81
-66.82
-55.66
-40.84
-24.69
-9.52
3.13
12.75
19.74
24.88
28.80
31.70
33.53
34.21
33.93
33.17
32.45
32.12
32.15
32.19
31.86
30.98
29.70
28.41
27.46
26.92
26.46
25.51
23.54
20.35
16.16
11.52
7.06
3.23
0.10
-2.59
-5.24
-8.22
-11.72
-15.64
-19.74
-23.73
-27.40
-30.69
-33.79
-37.06
-41.03
-46.18
-52.74
-60.41
-68.24
-74.65
-77.88
-76.42
-69.62
-57.97
-43.01
-26.84
-11.45
1.80
12.39
20.53
26.71
31.35
34.59
36.38
36.76
36.00
34.67
33.42
32.77
32.89
33.61
34.50
35.20
35.51
35.42
35.02
34.37
33.35
31.73
29.30
26.00
22.05
17.86
13.92
10.53
7.72
5.22
2.57
-0.65
-4.62
-9.23
-14.09
-18.74
-22.81
-26.22
-29.15
-32.03
-35.36
-39.68
-45.30
-52.13
-59.49
-66.06
-70.16
-70.14
-65.03
-54.95
-41.12
-25.55
-10.36
2.83
13.25
20.89
26.19
29.63
31.55
32.06
31.28
29.51
27.28
25.29
24.16
24.21
25.41
27.35
29.49
31.27
32.31
32.46
31.72
30.20
28.01
25.27
22.08
18.58
14.97
11.45
8.17
5.14
2.27
-0.69
-3.88
-7.35
-10.99
-14.58
-17.94
-21.07
-24.18
-27.63
-31.82
-36.99
-43.03
-49.36
-54.85
-58.12
-57.81
-53.09
-44.01
-31.61
-17.61
-3.91
7.96
17.19
23.67
27.71
29.78
30.24
29.35
27.47
25.08
22.81
21.31
20.97
21.83
23.57
25.61
27.36
28.31
28.22
27.10
25.12
22.52
19.55
16.36
13.01
9.50
5.79
1.83
-2.41
-6.86
-11.40
-15.82
-19.88
-23.43
-26.49
-29.29
-32.25
-35.88
-40.65
-46.82
-54.22
-62.11
-69.21
-73.81
-74.26
-69.54
-59.65
-45.74
-29.75
-13.81
0.39
11.96
20.76
27.14
31.48
34.07
35.10
34.74
33.39
31.60
29.99
29.13
29.30
30.48
32.33
34.33
35.89
36.53
35.99
34.27
31.60
28.27
24.57
20.64
16.52
12.22
7.77
3.28
-1.15
-5.37
-9.35
-13.07
-16.66
-20.25
-24.01
-28.15
-32.85
-38.32
-44.70
-52.00
-59.86
-67.42
-73.27
-75.71
-73.30
-65.41
-52.59
-36.54
-19.53
-3.71
9.56
19.89
27.66
33.51
37.94
41.07
42.85
43.29
42.64
41.43
40.30
39.78
40.06
41.05
42.37
43.58
44.30
44.30
43.46
41.80
39.34
36.17
32.41
28.25
23.87
19.45
15.06
10.68
6.23
1.66
-3.02
-7.72
-12.30
-16.67
-20.84
-24.94
-29.26
-34.15
-39.99
-46.98
-54.90
-62.94
-69.70
-73.44
-72.63
-66.49
-55.30
-40.43
-23.90
-7.81
6.27
17.57
26.05
32.12
36.27
38.84
40.03
40.00
39.04
37.66
36.47
35.94
36.29
37.35
38.68
39.78
40.27
39.94
38.82
37.04
34.75
32.06
29.06
25.78
22.25
18.51
14.63
10.67
6.69
2.75
-1.14
-4.95
-8.67
-12.29
-15.77
-19.13
-22.51
-26.19
-30.53
-35.87
-42.20
-48.90
-54.74
-58.08
-57.38
-51.87
-41.79
-28.52
-13.99
-0.14
11.72
21.06
27.93
32.68
35.53
36.58
35.88
33.74
30.79
27.95
26.08
25.74
26.93
29.11
31.50
33.25
33.81
33.00
31.02
28.28
25.24
22.23
19.32
16.36
13.05
9.12
4.53
-0.49
-5.47
-9.89
-13.45
-16.21
-18.54
-20.98
-24.08
-28.19
-33.47
-39.86
-47.03
-54.25
-60.41
-64.05
-63.73
-58.55
-48.54
-34.83
-19.32
-4.12
9.05
19.30
26.55
31.23
33.91
35.01
34.75
33.31
31.05
28.51
26.42
25.36
25.59
26.97
28.92
30.76
31.90
31.98
30.94
28.92
26.09
22.68
18.85
14.75
10.49
6.16
1.75
-2.79
-7.43
-12.12
-16.64
-20.73
-24.27
-27.33
-30.26
-33.56
-37.78
-43.29
-50.15
-57.94
-65.69
-71.96
-75.10
-73.67
-66.95
-55.24
-39.93
-23.11
-6.94
6.97
17.86
25.82
31.43
35.30
37.82
39.16
39.40
38.74
37.60
36.47
35.77
35.67
36.09
36.79
37.52
38.08
38.35
38.17
37.34
35.63
32.91
29.26
24.95
20.43
16.08
12.11
8.44
4.77
0.77
-3.73
-8.66
-13.70
-18.44
-22.64
-26.29
-29.70
-33.36
-37.84
-43.59
-50.76
-59.04
-67.47
-74.46
-78.14
-76.85
-69.81
-57.45
-41.41
-24.01
-7.48
6.66
17.87
26.36
32.68
37.26
40.28
41.77
41.85
40.90
39.54
38.43
38.01
38.37
39.24
40.19
40.83
40.98
40.65
39.92
38.85
37.36
35.28
32.50
29.01
25.02
20.80
16.63
12.66
8.85
5.06
1.12
-3.04
-7.34
-11.63
-15.70
-19.42
-22.81
-26.05
-29.51
-33.62
-38.81
-45.29
-52.81
-60.49
-66.85
-70.13
-68.81
-62.23
-50.86
-36.23
-20.50
-5.68
6.89
16.73
24.03
29.25
32.71
34.49
34.60
33.15
30.62
27.81
25.57
24.57
24.99
26.56
28.61
30.45
31.56
31.73
31.05
29.75
28.02
25.93
23.44
20.45
16.96
13.07
8.90
4.63
0.34
-3.89
-8.03
-12.04
-15.87
-19.51
-23.03
-26.63
-30.58
-35.25
-40.94
-47.63
-54.81
-61.35
-65.68
-66.23
-61.90
-52.61
-39.42
-24.18
-9.02
4.37
15.07
22.99
28.48
32.00
33.83
34.07
32.85
30.53
27.75
25.30
23.82
23.62
24.56
26.19
27.91
29.24
29.84
29.59
28.41
26.35
23.48
19.93
15.91
11.61
7.20
2.78
-1.67
-6.16
-10.68
-15.15
-19.43
-23.42
-27.07
-30.51
-33.99
-37.90
-42.70
-48.75
-56.10
-64.24
-71.92
-77.40
-78.82
-74.90
-65.41
-51.33
-34.55
-17.31
-1.50
11.74
22.04
29.60
34.82
38.07
39.62
39.74
38.77
37.21
35.60
34.45
34.03
34.42
35.39
36.54
37.41
37.59
36.89
35.28
32.91
29.97
26.65
23.05
19.15
14.86
10.11
4.87
-0.68
-6.33
-11.75
-16.69
-21.04
-24.88
-28.48
-32.20
-36.47
-41.69
-48.19
-56.02
-64.71
-73.19
-79.73
-82.41
-79.67
-70.98
-57.11
-39.97
-21.97
-5.27
8.74
19.62
27.65
33.38
37.31
39.78
41.01
41.26
40.90
40.38
40.14
40.43
41.26
42.38
43.41
43.97
43.80
42.81
41.00
38.54
35.58
32.31
28.86
25.29
21.61
17.70
13.49
8.89
3.93
-1.29
-6.59
-11.79
-16.72
-21.30
-25.56
-29.67
-33.98
-38.95
-45.04
-52.35
-60.40
-67.97
-73.29
-74.53
-70.42
-60.81
-46.80
-30.41
-13.90
0.90
13.01
22.32
29.17
34.01
37.11
38.59
38.58
37.45
35.81
34.41
33.87
34.44
35.93
37.79
39.31
39.91
39.33
37.67
35.29
32.59
29.86
27.09
24.13
20.68
16.54
11.72
6.46
1.17
-3.67
-7.75
-11.02
-13.73
-16.37
-19.50
-23.64
-29.07
-35.79
-43.44
-51.21
-57.88
-62.01
-62.29
-57.91
-48.94
-36.32
-21.68
-6.80
6.83
18.25
26.99
32.90
35.99
36.40
34.53
31.13
27.25
24.01
22.24
22.27
23.79
26.00
28.00
29.04
28.81
27.49
25.51
23.30
21.08
18.69
15.74
11.83
6.86
1.10
-4.83
-10.27
-14.81
-18.44
-21.59
-24.89
-28.97
-34.25
-40.82
-48.34
-56.04
-62.68
-66.74
-66.77
-61.86
-52.02
-38.25
-22.35
-6.35
8.02
19.74
28.53
34.64
38.44
40.25
40.29
38.82
36.28
33.34
30.81
29.33
29.21
30.22
31.75
33.04
33.44
32.65
30.78
28.16
25.16
21.95
18.46
14.44
9.67
4.15
-1.80
-7.68
-12.94
-17.28
-20.72
-23.65
-26.65
-30.29
-35.07
-41.27
-48.88
-57.53
-66.30
-73.77
-78.18
-77.90
-71.98
-60.61
-45.15
-27.72
-10.54
4.72
17.25
27.05
34.52
40.10
44.05
46.43
47.32
46.99
45.88
44.59
43.61
43.28
43.55
44.18
44.74
44.81
44.13
42.60
40.30
37.38
34.02
30.33
26.40
22.28
17.99
13.54
8.94
4.20
-0.62
-5.40
-10.03
-14.43
-18.66
-22.91
-27.46
-32.59
-38.55
-45.47
-53.28
-61.51
-69.18
-74.84
-76.82
-73.79
-65.27
-51.95
-35.53
-18.24
-2.13
11.46
22.09
29.98
35.68
39.62
42.04
43.07
42.92
42.03
41.01
40.48
40.74
41.76
43.12
44.29
44.84
44.66
43.86
42.68
41.21
39.31
36.70
33.17
28.78
23.90
19.06
14.72
11.06
7.87
4.69
1.11
-3.07
-7.66
-12.26
-16.44
-19.95
-22.89
-25.64
-28.74
-32.78
-38.16
-44.97
-52.74
-60.40
-66.30
-68.72
-66.29
-58.62
-46.48
-31.62
-16.21
-2.14
9.45
18.20
24.41
28.46
30.70
31.28
30.39
28.42
26.03
24.01
23.01
23.35
24.89
27.12
29.38
31.04
31.74
31.40
30.20
28.40
26.27
23.95
21.43
18.56
15.16
11.11
6.41
1.34
-3.73
-8.36
-12.26
-15.40
-17.98
-20.40
-23.15
-26.66
-31.21
-36.91
-43.54
-50.45
-56.54
-60.36
-60.46
-55.89
-46.66
-33.84
-19.24
-4.90
7.58
17.36
24.32
28.80
31.17
31.70
30.64
28.37
25.54
22.96
21.34
21.01
21.88
23.42
25.02
26.14
26.49
25.98
24.70
22.78
20.39
17.65
14.62
11.30
7.65
3.56
-0.99
-5.93
-11.05
-16.09
-20.78
-24.98
-28.69
-32.05
-35.33
-38.92
-43.21
-48.59
-55.12
-62.37
-69.27
-74.19
-75.40
-71.64
-62.67
-49.38
-33.62
-17.51
-2.82
9.42
18.96
26.06
31.12
34.45
36.22
36.62
35.97
34.80
33.67
33.09
33.26
34.09
35.19
36.11
36.50
36.27
35.48
34.30
32.75
30.73
28.04
24.55
20.36
15.76
11.19
6.89
2.91
-1.01
-5.17
-9.74
-14.65
-19.58
-24.18
-28.23
-31.77
-35.10
-38.70
-43.04
-48.47
-55.06
-62.44
-69.68
-75.33
-77.72
-75.48
-67.98
-55.76
-40.34
-23.81
-8.19
5.20
15.83
23.88
29.84
34.14
37.03
38.61
39.01
38.54
37.68
36.92
36.61
36.82
37.37
37.91
38.20
38.10
37.66
36.99
36.05
34.71
32.70
29.83
26.14
21.91
17.60
13.65
10.26
7.35
4.57
1.49
-2.16
-6.36
-10.83
-15.15
-18.98
-22.22
-25.03
-27.81
-31.02
-35.09
-40.30
-46.63
-53.64
-60.33
-65.25
-66.80
-63.74
-55.72
-43.49
-28.77
-13.62
0.11
11.33
19.75
25.61
29.33
31.19
31.34
29.94
27.36
24.29
21.57
20.00
19.96
21.34
23.55
25.82
27.42
27.97
27.45
26.12
24.26
22.11
19.72
17.05
14.07
10.81
7.35
3.82
0.30
-3.18
-6.62
-9.96
-13.16
-16.11
-18.82
-21.37
-24.03
-27.18
-31.22
-36.40
-42.58
-49.07
-54.65
-57.80
-57.10
-51.77
-42.02
-29.04
-14.68
-0.88
10.90
19.94
26.21
30.06
31.89
31.99
30.59
28.08
25.02
22.16
20.20
19.58
20.30
21.98
24.01
25.72
26.65
26.60
25.62
23.90
21.67
19.08
16.19
12.98
9.49
5.76
1.87
-2.09
-6.09
-10.14
-14.23
-18.28
-22.14
-25.73
-29.06
-32.39
-36.15
-40.84
-46.77
-53.82
-61.26
-67.75
-71.63
-71.36
-66.08
-55.90
-42.03
-26.34
-10.86
2.79
13.76
21.89
27.51
31.05
32.91
33.35
32.68
31.28
29.68
28.42
27.85
28.10
28.98
30.16
31.25
31.94
32.03
31.40
30.03
27.92
25.14
21.81
18.11
14.20
10.21
6.22
2.22
-1.82
-5.93
-10.07
-14.17
-18.11
-21.81
-25.27
-28.59
-32.01
-35.90
-40.70
-46.70
-53.84
-61.41
-68.06
-72.08
-71.80
-66.32
-55.82
-41.59
-25.62
-9.97
3.83
15.05
23.61
29.85
34.13
36.77
37.99
38.09
37.45
36.52
35.74
35.40
35.66
36.46
37.63
38.87
39.85
40.30
40.02
38.92
37.02
34.40
31.19
27.56
23.69
19.78
16.06
12.64
9.48
6.37
3.03
-0.77
-5.04
-9.56
-14.01
-18.11
-21.77
-25.18
-28.71
-32.84
-38.01
-44.36
-51.57
-58.73
-64.42
-67.03
-65.20
-58.38
-47.08
-32.79
-17.55
-3.32
8.56
17.52
23.66
27.44
29.35
29.76
28.94
27.16
24.87
22.68
21.22
20.95
21.96
23.92
26.18
28.04
29.04
29.01
28.12
26.67
24.94
23.03
20.84
18.21
15.00
11.23
7.06
2.79
-1.25
-4.86
-7.98
-10.74
-13.38
-16.20
-19.42
-23.21
-27.71
-33.02
-39.17
-45.87
-52.35
-57.39
-59.48
-57.40
-50.66
-39.80
-26.30
-12.07
1.10
12.04
20.31
25.99
29.40
30.77
30.27
28.14
24.89
21.28
18.24
16.56
16.61
18.21
20.71
23.28
25.17
25.93
25.49
24.02
21.83
19.21
16.31
13.22
9.89
6.21
2.11
-2.44
-7.28
-12.11
-16.53
-20.30
-23.39
-26.08
-28.91
-32.42
-37.08
-43.02
-49.96
-57.09
-63.14
-66.58
-66.03
-60.66
-50.62
-37.02
-21.67
-6.53
6.87
17.71
25.91
31.83
35.92
38.47
39.57
39.33
37.98
36.05
34.26
33.30
33.61
35.12
37.38
39.64
41.11
41.24
39.71
36.51
31.86
26.11
19.76
13.37
7.41
2.23
-2.16
-5.98
-9.61
-13.38
-17.39
-21.53
-25.57
-29.34
-32.90
-36.54
-40.76
-46.06
-52.75
-60.69
-69.18
-76.88
-82.04
-82.94
-78.43
-68.39
-53.89
-36.85
-19.50
-3.63
9.72
20.33
28.51
34.62
38.93
41.55
42.62
42.49
41.74
41.04
40.86
41.33
42.15
42.86
43.08
42.73
41.99
41.15
40.35
39.40
37.85
35.28
31.49
26.73
21.57
16.66
12.42
8.84
5.55
2.07
-1.96
-6.58
-11.57
-16.55
-21.27
-25.69
-30.03
-34.72
-40.19
-46.81
-54.64
-63.25
-71.68
-78.44
-81.84
-80.44
-73.57
-61.62
-45.98
-28.68
-11.72
3.36
15.78
25.41
32.51
37.45
40.51
41.94
42.06
41.34
40.38
39.75
39.86
40.77
42.23
43.82
45.11
45.84
45.95
45.54
44.69
43.37
41.45
38.75
35.18
30.90
26.27
21.75
17.71
14.28
11.31
8.42
5.25
1.54
-2.69
-7.25
-11.85
-16.24
-20.38
-24.39
-28.66
-33.67
-39.82
-47.13
-54.99
-62.13
-66.84
-67.46
-63.01
-53.57
-40.34
-25.24
-10.27
2.99
13.72
21.75
27.32
30.74
32.24
32.00
30.25
27.52
24.57
22.29
21.38
22.19
24.50
27.62
30.67
32.81
33.58
32.94
31.20
28.81
26.15
23.36
20.38
17.00
13.03
8.44
3.39
-1.77
-6.62
-10.83
-14.28
-17.13
-19.78
-22.68
-26.29
-30.94
-36.82
-43.80
-51.41
-58.69
-64.25
-66.54
-64.28
-57.02
-45.32
-30.71
-15.19
-0.63
11.72
21.32
28.22
32.65
34.81
34.86
33.05
29.93
26.42
23.57
22.25
22.78
24.80
27.46
29.72
30.82
30.51
28.98
26.66
23.91
20.85
17.41
13.41
8.80
3.68
-1.70
-7.05
-12.14
-16.81
-21.04
-24.91
-28.65
-32.61
-37.18
-42.72
-49.40
-56.99
-64.81
-71.66
-76.01
-76.37
-71.73
-61.95
-47.93
-31.42
-14.48
1.06
14.06
24.13
31.39
36.21
38.90
39.74
39.08
37.47
35.65
34.34
34.08
34.98
36.76
38.81
40.48
41.22
40.76
39.18
36.81
34.00
31.04
27.98
24.61
20.66
15.91
10.38
4.33
-1.79
-7.56
-12.70
-17.21
-21.28
-25.27
-29.59
-34.66
-40.83
-48.29
-56.88
-65.92
-74.09
-79.61
-80.65
-75.99
-65.50
-50.36
-32.66
-14.79
1.30
14.58
24.89
32.66
38.46
42.65
45.40
46.75
46.88
46.16
45.16
44.43
44.32
44.89
45.90
46.94
47.64
47.74
47.11
45.71
43.50
40.44
36.57
32.03
27.07
21.98
16.98
12.12
7.35
2.57
-2.24
-7.01
-11.61
-15.98
-20.12
-24.19
-28.41
-33.10
-38.62
-45.22
-52.93
-61.28
-69.17
-74.95
-76.82
-73.43
-64.40
-50.57
-33.80
-16.34
-0.19
13.40
24.05
31.96
37.50
40.95
42.44
42.14
40.46
38.17
36.18
35.26
35.75
37.45
39.76
41.96
43.48
44.03
43.58
42.22
40.05
37.15
33.63
29.67
25.46
21.19
16.97
12.79
8.59
4.35
0.14
-3.92
-7.73
-11.27
-14.64
-18.01
-21.63
-25.76
-30.70
-36.67
-43.65
-51.06
-57.73
-62.00
-62.20
-57.27
-47.23
-33.29
-17.43
-1.82
11.86
22.74
30.67
35.85
38.57
39.04
37.48
34.38
30.58
27.15
25.05
24.77
26.12
28.35
30.41
31.39
30.90
29.04
26.35
23.45
20.72
18.22
15.71
12.79
9.19
4.86
-0.01
-5.03
-9.82
-14.09
-17.77
-21.00
-24.10
-27.43
-31.42
-36.40
-42.58
-49.90
-57.81
-65.21
-70.46
-71.78
-67.81
-58.19
-43.83
-26.70
-9.24
6.43
19.03
28.27
34.51
38.32
40.18
40.39
39.23
37.15
34.75
32.73
31.55
31.38
32.05
33.15
34.25
35.01
35.21
34.71
33.37
31.13
28.01
24.16
19.84
15.40
11.10
7.08
3.30
-0.41
-4.20
-8.17
-12.26
-16.30
-20.09
-23.61
-27.00
-30.64
-34.96
-40.40
-47.22
-55.30
-63.99
-72.04
-77.70
-79.17
-75.09
-65.15
-50.27
-32.44
-14.09
2.65
16.46
26.95
34.44
39.48
42.55
43.96
43.96
42.87
41.16
39.40
38.06
37.39
37.42
37.93
38.66
39.31
39.65
39.50
38.72
37.19
34.84
31.64
27.75
23.43
18.98
14.67
10.60
6.69
2.71
-1.54
-6.10
-10.85
-15.49
-19.76
-23.58
-27.10
-30.68
-34.80
-39.87
-46.12
-53.43
-61.17
-68.20
-72.93
-73.77
-69.55
-60.09
-46.28
-29.96
-13.29
1.89
14.45
24.08
31.02
35.66
38.34
39.31
38.87
37.47
35.71
34.22
33.43
33.49
34.21
35.29
36.38
37.24
37.71
37.69
37.03
35.55
33.12
29.68
25.40
20.58
15.66
11.02
6.92
3.41
0.34
-2.59
-5.72
-9.26
-13.23
-17.41
-21.44
-25.01
-28.04
-30.82
-33.91
-38.01
-43.57
-50.47
-57.88
-64.26
-67.81
-66.97
-60.98
-50.22
-36.08
-20.56
-5.69
7.06
16.94
23.93
28.36
30.58
30.87
29.44
26.66
23.17
19.85
17.57
16.92
17.99
20.30
22.99
25.12
26.05
25.59
24.04
21.90
19.65
17.46
15.18
12.42
8.84
4.40
-0.60
-5.64
-10.18
-13.89
-16.78
-19.11
-21.28
-23.67
-26.62
-30.36
-35.09
-40.85
-47.35
-53.79
-58.88
-61.11
-59.19
-52.60
-41.81
-28.28
-13.91
-0.56
10.54
18.91
24.68
28.22
29.85
29.79
28.20
25.46
22.23
19.34
17.59
17.43
18.73
20.82
22.79
23.81
23.44
21.77
19.29
16.58
14.02
11.65
9.14
6.07
2.11
-2.71
-8.01
-13.22
-17.84
-21.62
-24.67
-27.39
-30.25
-33.69
-38.01
-43.35
-49.67
-56.63
-63.41
-68.74
-71.03
-68.86
-61.54
-49.50
-34.25
-17.96
-2.67
10.18
20.09
27.29
32.26
35.41
36.97
37.03
35.84
33.92
31.99
30.75
30.59
31.47
32.94
34.34
35.04
34.72
33.38
31.29
28.81
26.22
23.64
20.96
18.02
14.66
10.82
6.56
2.02
-2.60
-7.10
-11.31
-15.17
-18.75
-22.32
-26.28
-31.07
-37.06
-44.37
-52.70
-61.26
-68.71
-73.42
-73.81
-68.90
-58.73
-44.48
-28.15
-11.98
2.27
13.69
22.23
28.37
32.69
35.53
36.98
37.09
36.08
34.40
32.67
31.45
31.02
31.33
32.08
32.83
33.20
32.95
32.03
30.54
28.60
26.33
23.78
20.91
17.62
13.84
9.57
4.94
0.17
-4.48
-8.79
-12.69
-16.24
-19.60
-22.97
-26.59
-30.65
-35.41
-41.09
-47.79
-55.26
-62.72
-68.83
-71.92
-70.54
-63.96
-52.58
-37.87
-21.87
-6.57
6.67
17.31
25.37
31.12
34.75
36.34
36.02
34.14
31.40
28.67
26.76
26.16
26.89
28.58
30.60
32.28
33.16
32.98
31.78
29.76
27.18
24.26
21.09
17.69
14.00
10.02
5.79
1.45
-2.81
-6.84
-10.57
-14.08
-17.55
-21.19
-25.15
-29.54
-34.47
-40.08
-46.36
-53.01
-59.14
-63.35
-64.01
-59.95
-50.97
-38.03
-23.03
-8.04
5.26
16.01
24.09
29.76
33.26
34.69
34.15
31.98
28.88
25.78
23.58
22.81
23.50
25.19
27.17
28.73
29.36
28.86
27.30
24.96
22.17
19.23
16.23
13.08
9.57
5.44
0.65
-4.61
-9.93
-14.86
-19.10
-22.66
-25.83
-29.10
-32.97
-37.81
-43.80
-50.81
-58.36
-65.43
-70.54
-72.07
-68.71
-60.02
-46.69
-30.48
-13.60
1.95
14.89
24.86
32.14
37.17
40.25
41.45
40.81
38.59
35.43
32.31
30.18
29.64
30.69
32.75
34.90
36.27
36.33
35.04
32.74
29.92
26.97
24.03
20.95
17.47
13.31
8.39
2.86
-2.93
-8.53
-13.60
-17.97
-21.78
-25.36
-29.21
-33.82
-39.57
-46.65
-54.85
-63.55
-71.56
-77.28
-79.01
-75.47
-66.27
-52.27
-35.29
-17.63
-1.37
12.26
22.93
31.01
37.06
41.51
44.46
45.93
46.03
45.12
43.80
42.66
42.15
42.34
43.06
43.93
44.55
44.65
44.11
42.94
41.24
39.10
36.53
33.49
29.91
25.78
21.12
16.10
10.90
5.75
0.81
-3.78
-7.98
-11.81
-15.40
-18.96
-22.76
-27.16
-32.51
-39.07
-46.75
-54.91
-62.27
-67.08
-67.64
-62.91
-52.96
-39.08
-23.32
-7.85
5.73
16.67
24.97
30.98
35.03
37.23
37.59
36.29
33.82
31.01
28.77
27.80
28.30
29.93
31.96
33.58
34.18
33.56
31.86
29.46
26.70
23.84
20.90
17.78
14.32
10.41
6.03
1.33
-3.40
-7.83
-11.70
-14.99
-17.91
-20.82
-24.10
-28.07
-32.87
-38.46
-44.64
-50.86
-56.27
-59.62
-59.61
-55.25
-46.37
-33.79
-19.16
-4.46
8.64
19.14
26.77
31.73
34.35
34.90
33.62
30.90
27.44
24.18
22.07
21.66
22.95
25.34
27.90
29.71
30.18
29.19
27.05
24.26
21.29
18.38
15.45
12.25
8.50
4.09
-0.82
-5.85
-10.59
-14.73
-18.22
-21.27
-24.22
-27.44
-31.24
-35.90
-41.62
-48.42
-55.99
-63.40
-69.18
-71.63
-69.32
-61.70
-49.40
-34.07
-17.84
-2.66
10.20
20.29
27.77
33.01
36.36
38.01
38.13
37.05
35.27
33.42
32.08
31.57
31.91
32.85
33.99
34.89
35.22
34.73
33.36
31.14
28.23
24.83
21.17
17.39
13.56
9.60
5.39
0.86
-3.96
-8.88
-13.68
-18.16
-22.26
-26.11
-29.96
-34.16
-39.06
-44.93
-51.83
-59.45
-66.95
-73.00
-75.97
-74.43
-67.68
-56.05
-40.96
-24.45
-8.55
5.29
16.47
25.06
31.46
36.05
39.03
40.51
40.74
40.16
39.34
38.81
38.80
39.26
39.90
40.41
40.66
40.63
40.38
39.85
38.85
37.09
34.37
30.71
26.33
21.64
17.05
12.84
9.07
5.54
1.94
-2.02
-6.47
-11.30
-16.15
-20.62
-24.47
-27.77
-30.92
-34.60
-39.45
-45.90
-53.86
-62.56
-70.68
-76.48
-78.29
-74.96
-66.28
-53.16
-37.33
-20.90
-5.70
7.11
17.18
24.72
30.17
33.85
35.96
36.64
36.15
34.99
33.74
32.91
32.76
33.27
34.18
35.15
35.94
36.40
36.45
36.03
35.03
33.36
30.95
27.83
24.15
20.17
16.11
12.14
8.30
4.49
0.59
-3.49
-7.65
-11.72
-15.45
-18.76
-21.73
-24.66
-27.93
-31.90
-36.82
-42.72
-49.30
-55.82
-61.08
-63.65
-62.22
-56.14
-45.75
-32.39
-17.96
-4.33
7.20
16.09
22.40
26.41
28.30
28.19
26.30
23.17
19.73
17.07
16.10
17.17
19.97
23.68
27.29
29.96
31.25
31.14
29.90
27.88
25.36
22.46
19.12
15.24
10.76
5.81
0.66
-4.27
-8.57
-12.06
-14.78
-17.04
-19.32
-22.18
-26.06
-31.20
-37.51
-44.43
-50.92
-55.62
-57.11
-54.37
-47.14
-36.08
-22.62
-8.56
4.44
15.20
23.18
28.35
31.04
31.64
30.57
28.29
25.33
22.35
20.02
18.88
19.12
20.54
22.56
24.42
25.49
25.43
24.25
22.21
19.67
16.87
13.88
10.60
6.84
2.48
-2.42
-7.60
-12.68
-17.29
-21.21
-24.46
-27.32
-30.20
-33.52
-37.67
-42.92
-49.37
-56.81
-64.58
-71.46
-75.81
-75.99
-70.97
-60.74
-46.51
-30.29
-14.26
-0.11
11.35
20.08
26.47
30.95
33.74
34.94
34.69
33.41
31.74
30.40
29.91
30.40
31.61
33.08
34.33
35.06
35.14
34.54
33.25
31.22
28.42
24.95
20.98
16.80
12.59
8.43
4.20
-0.25
-5.00
-9.99
-15.02
-19.82
-24.21
-28.21
-31.99
-35.89
-40.37
-45.89
-52.76
-60.87
-69.44
-77.03
-81.70
-81.61
-75.66
-64.01
-48.09
-30.14
-12.53
2.97
15.47
24.97
31.84
36.55
39.39
40.55
40.32
39.16
37.69
36.52
36.02
36.28
37.10
38.19
39.22
39.94
40.19
39.81
38.67
36.69
33.90
30.42
26.51
22.41
18.30
14.27
10.27
6.21
1.93
-2.64
-7.50
-12.53
-17.53
-22.30
-26.73
-30.92
-35.15
-39.94
-45.82
-53.04
-61.26
-69.38
-75.66
-78.16
-75.41
-66.94
-53.51
-36.95
-19.54
-3.33
10.31
20.88
28.54
33.70
36.76
37.98
37.63
36.11
34.07
32.29
31.46
31.93
33.51
35.58
37.35
38.17
37.81
36.47
34.57
32.58
30.67
28.75
26.50
23.60
19.85
15.29
10.24
5.11
0.32
-3.87
-7.43
-10.61
-13.78
-17.41
-21.87
-27.41
-34.04
-41.39
-48.67
-54.65
-57.93
-57.28
-52.05
-42.52
-29.82
-15.64
-1.73
10.50
20.21
27.02
30.85
31.85
30.39
27.10
22.94
19.00
16.25
15.24
15.99
18.01
20.52
22.71
24.01
24.21
23.43
21.93
19.96
17.59
14.67
10.99
6.46
1.23
-4.26
-9.45
-13.88
-17.44
-20.44
-23.44
-27.13
-32.04
-38.35
-45.76
-53.40
-59.91
-63.68
-63.30
-57.98
-47.99
-34.57
-19.58
-4.93
7.96
18.36
26.15
31.47
34.48
35.32
34.17
31.54
28.25
25.32
23.63
23.57
24.94
27.04
28.95
29.90
29.57
28.09
25.86
23.26
20.38
17.05
12.90
7.72
1.61
-4.91
-11.21
-16.74
-21.30
-25.14
-28.78
-32.88
-37.99
-44.45
-52.30
-61.11
-69.89
-77.10
-80.94
-79.78
-72.84
-60.51
-44.32
-26.49
-9.21
5.99
18.42
28.09
35.30
40.30
43.19
44.07
43.24
41.37
39.39
38.17
38.21
39.43
41.22
42.71
43.18
42.33
40.38
37.83
35.19
32.63
29.91
26.52
21.95
16.08
9.24
2.15
-4.44
-10.00
-14.49
-18.35
-22.26
-26.96
-32.99
-40.57
-49.47
-58.98
-67.88
-74.54
-77.28
-74.75
-66.50
-53.19
-36.49
-18.63
-1.69
12.91
24.67
33.80
40.82
46.10
49.78
51.79
52.16
51.22
49.62
48.12
47.35
47.55
48.50
49.69
50.47
50.36
49.16
46.97
44.06
40.76
37.25
33.51
29.35
24.57
19.07
13.03
6.81
0.84
-4.57
-9.32
-13.55
-17.55
-21.67
-26.23
-31.56
-37.93
-45.48
-54.01
-62.73
-70.22
-74.64
-74.29
-68.27
-56.85
-41.48
-24.28
-7.37
7.76
20.42
30.55
38.30
43.79
46.96
47.84
46.74
44.35
41.66
39.58
38.75
39.27
40.79
42.61
44.01
44.44
43.70
41.90
39.36
36.42
33.31
30.05
26.50
22.48
17.86
12.70
7.26
1.90
-3.03
-7.35
-11.07
-14.39
-17.69
-21.35
-25.76
-31.19
-37.70
-45.04
-52.47
-58.79
-62.49
-62.18
-57.05
-47.25
-33.90
-18.78
-3.78
9.62
20.57
28.79
34.30
37.20
37.58
35.72
32.24
28.17
24.68
22.74
22.76
24.45
26.90
29.06
30.11
29.75
28.20
25.99
23.58
21.17
18.60
15.55
11.70
6.98
1.62
-3.92
-9.11
-13.56
-17.15
-20.06
-22.76
-25.82
-29.77
-34.99
-41.56
-49.09
-56.63
-62.73
-65.71
-64.13
-57.39
-45.94
-31.28
-15.45
-0.42
12.47
22.64
30.10
35.17
38.12
39.17
38.57
36.70
34.17
31.66
29.81
29.05
29.45
30.74
32.39
33.70
34.09
33.21
31.10
28.10
24.70
21.28
17.99
14.67
11.03
6.77
1.82
-3.67
-9.32
-14.69
-19.53
-23.78
-27.63
-31.41
-35.41
-39.90
-45.06
-51.08
-58.04
-65.72
-73.31
-79.34
-81.93
-79.42
-71.03
-57.36
-40.24
-22.16
-5.41
8.59
19.47
27.65
33.77
38.24
41.15
42.44
42.22
40.98
39.47
38.44
38.29
38.95
39.98
40.82
41.08
40.64
39.61
38.12
36.24
33.87
30.89
27.23
22.98
18.34
13.59
8.97
4.59
0.41
-3.71
-7.88
-12.18
-16.55
-20.85
-24.91
-28.69
-32.29
-36.09
-40.59
-46.29
-53.39
-61.57
-69.77
-76.34
-79.37
-77.32
-69.53
-56.59
-40.16
-22.54
-5.88
8.40
19.75
28.37
34.73
39.18
41.81
42.62
41.78
39.85
37.69
36.19
35.84
36.62
37.96
39.13
39.61
39.29
38.43
37.42
36.45
35.40
33.85
31.36
27.69
23.03
17.90
12.97
8.75
5.39
2.65
0.01
-3.03
-6.78
-11.19
-15.92
-20.52
-24.62
-28.11
-31.13
-34.10
-37.55
-42.02
-47.85
-54.94
-62.58
-69.40
-73.63
-73.57
-68.21
-57.66
-43.20
-26.88
-10.89
3.11
14.29
22.58
28.33
31.87
33.41
33.04
31.01
27.86
24.46
21.77
20.55
21.07
22.99
25.52
27.73
28.85
28.58
27.08
24.85
22.38
19.96
17.53
14.80
11.46
7.43
2.85
-1.95
-6.60
-10.86
-14.65
-18.03
-21.10
-24.03
-26.95
-30.13
-33.91
-38.68
-44.64
-51.51
-58.40
-63.80
-65.97
-63.51
-55.88
-43.75
-28.79
-13.17
1.14
12.86
21.59
27.57
31.23
32.93
32.83
31.08
28.07
24.48
21.22
19.13
18.67
19.77
21.90
24.29
26.19
27.09
26.79
25.36
23.03
20.05
16.66
13.00
9.13
5.02
0.64
-4.01
-8.83
-13.68
-18.36
-22.72
-26.70
-30.34
-33.83
-37.41
-41.45
-46.32
-52.37
-59.73
-68.01
-76.20
-82.59
-85.24
-82.55
-73.92
-60.10
-43.05
-25.25
-8.96
4.47
14.67
22.07
27.32
30.91
33.09
33.93
33.61
32.56
31.39
30.69
30.84
31.82
33.32
34.87
36.02
36.47
36.15
35.10
33.41
31.17
28.41
25.13
21.31
16.98
12.17
6.96
1.49
-4.09
-9.61
-14.91
-19.92
-24.64
-29.18
-33.71
-38.52
-43.95
-50.36
-58.03
-66.85
-76.07
-84.26
-89.47
-89.80
-84.06
-72.29
-55.88
-37.12
-18.47
-1.81
11.91
22.62
30.72
36.69
40.83
43.26
44.17
43.88
42.98
42.05
41.63
41.91
42.79
43.93
44.95
45.51
45.46
44.75
43.42
41.53
39.10
36.20
32.90
29.29
25.42
21.28
16.78
11.86
6.58
1.12
-4.22
-9.21
-13.74
-17.92
-22.00
-26.34
-31.32
-37.32
-44.53
-52.80
-61.34
-68.72
-73.08
-72.72
-66.72
-55.37
-40.17
-23.35
-7.08
7.06
18.36
26.80
32.67
36.27
37.77
37.34
35.39
32.62
30.03
28.52
28.68
30.48
33.35
36.39
38.66
39.60
39.04
37.28
34.75
31.88
28.86
25.65
22.03
17.82
12.95
7.62
2.19
-2.93
-7.43
-11.23
-14.55
-17.78
-21.37
-25.73
-31.12
-37.62
-45.02
-52.64
-59.32
-63.55
-63.79
-59.05
-49.26
-35.48
-19.52
-3.43
11.09
23.04
32.11
38.33
41.84
42.71
41.15
37.69
33.30
29.24
26.63
26.10
27.52
30.11
32.77
34.53
34.86
33.76
31.62
28.96
26.10
23.07
19.62
15.41
10.26
4.25
-2.15
-8.36
-13.86
-18.44
-22.30
-25.94
-29.94
-34.85
-41.02
-48.54
-57.15
-66.06
-73.90
-78.88
-79.21
-73.73
-62.40
-46.52
-28.31
-10.24
5.75
18.67
28.48
35.60
40.47
43.28
44.01
42.84
40.34
37.47
35.33
34.67
35.60
37.52
39.45
40.51
40.20
38.64
36.30
33.70
31.06
28.25
24.81
20.21
14.23
7.06
-0.71
-8.25
-14.85
-20.14
-24.28
-27.86
-31.69
-36.59
-43.08
-51.26
-60.66
-70.16
-78.15
-82.73
-82.26
-75.88
-63.89
-47.70
-29.46
-11.38
4.85
18.39
29.13
37.36
43.39
47.36
49.33
49.45
48.19
46.29
44.62
43.89
44.38
45.84
47.58
48.80
48.89
47.65
45.30
42.31
39.07
35.74
32.16
28.00
22.95
16.95
10.25
3.34
-3.17
-8.86
-13.58
-17.51
-21.10
-24.92
-29.49
-35.23
-42.29
-50.51
-59.24
-67.27
-73.00
-74.69
-71.13
-62.01
-48.31
-31.96
-15.27
-0.19
12.16
21.58
28.42
33.08
35.79
36.59
35.68
33.62
31.32
29.77
29.62
30.88
32.99
35.09
36.38
36.51
35.54
33.79
31.59
29.11
26.24
22.73
18.41
13.28
7.65
2.03
-3.05
-7.27
-10.71
-13.81
-17.22
-21.61
-27.40
-34.62
-42.81
-51.01
-57.83
-61.72
-61.35
-56.00
-45.93
-32.37
-17.13
-2.07
11.34
22.32
30.60
36.14
39.01
39.30
37.38
34.05
30.50
27.94
27.22
28.46
31.06
33.95
36.10
36.84
36.08
34.18
31.61
28.76
25.71
22.30
18.27
13.44
7.87
1.87
-4.11
-9.60
-14.29
-18.19
-21.64
-25.21
-29.61
-35.37
-42.70
-51.23
-59.94
-67.29
-71.49
-71.00
-65.04
-53.90
-38.90
-22.05
-5.41
9.44
21.66
31.07
37.89
42.42
44.87
45.44
44.44
42.45
40.27
38.67
38.17
38.85
40.34
41.97
43.02
42.99
41.71
39.39
36.39
33.14
29.87
26.59
23.02
18.85
13.83
8.03
1.83
-4.18
-9.46
-13.81
-17.42
-20.82
-24.66
-29.48
-35.58
-42.97
-51.33
-59.92
-67.51
-72.49
-73.28
-68.83
-59.08
-45.17
-29.01
-12.71
2.14
14.78
25.14
33.52
40.12
44.90
47.73
48.65
48.05
46.65
45.24
44.43
44.41
45.02
45.80
46.30
46.23
45.51
44.22
42.48
40.31
37.67
34.46
30.61
26.26
21.70
17.31
13.38
9.91
6.65
3.16
-0.88
-5.52
-10.50
-15.33
-19.58
-23.09
-26.10
-29.13
-32.85
-37.85
-44.46
-52.48
-61.17
-69.17
-74.76
-76.26
-72.61
-63.79
-50.86
-35.67
-20.25
-6.24
5.52
14.92
22.29
28.05
32.39
35.33
36.85
37.13
36.60
35.90
35.60
36.04
37.15
38.56
39.72
40.24
39.97
39.07
37.81
36.40
34.81
32.83
30.16
26.69
22.56
18.18
14.03
10.47
7.60
5.19
2.83
0.10
-3.24
-7.15
-11.35
-15.44
-19.07
-22.13
-24.83
-27.59
-30.95
-35.33
-40.94
-47.57
-54.60
-60.94
-65.26
-66.26
-63.10
-55.72
-44.93
-32.18
-19.15
-7.23
2.76
10.54
16.20
19.91
21.87
22.27
21.47
20.02
18.57
17.72
17.76
18.65
20.03
21.43
22.46
22.90
22.72
22.01
20.85
19.27
17.24
14.78
11.95
8.92
5.90
3.07
0.49
-1.89
-4.25
-6.78
-9.60
-12.74
-16.01
-19.20
-22.06
-24.51
-26.69
-28.97
-31.85
-35.79
-40.91
-46.83
-52.62
-56.93
-58.34
-55.82
-49.14
-38.95
-26.67
-13.95
-2.23
7.62
15.30
20.94
24.73
26.82
27.30
26.38
24.48
22.24
20.35
19.32
19.34
20.21
21.51
22.78
23.66
24.01
23.82
23.12
21.92
20.16
17.76
14.71
11.12
7.28
3.51
0.08
-2.95
-5.73
-8.49
-11.52
-14.86
-18.44
-22.03
-25.38
-28.42
-31.21
-34.01
-37.15
-41.01
-45.86
-51.72
-58.15
-64.17
-68.35
-69.20
-65.66
-57.55
-45.80
-32.07
-18.31
-6.05
3.88
11.44
16.99
20.99
23.71
25.23
25.60
25.04
23.97
22.96
22.47
22.74
23.64
24.77
25.68
26.05
25.77
24.99
23.95
22.79
21.49
19.82
17.55
14.55
10.94
7.07
3.36
0.10
-2.69
-5.27
-8.06
-11.39
-15.38
-19.81
-24.22
-28.14
-31.31
-33.77
-35.97
-38.57
-42.26
-47.54
-54.42
-62.30
-69.92
-75.64
-77.80
-75.24
-67.71
-55.98
-41.67
-26.71
-12.76
-0.89
8.63
16.00
21.66
25.92
28.89
30.59
31.07
30.63
29.76
29.06
29.03
29.83
31.33
33.05
34.52
35.41
35.61
35.28
34.61
33.72
32.57
30.93
28.60
25.50
21.78
17.81
14.05
10.85
8.27
6.10
3.88
1.15
-2.33
-6.48
-10.86
-14.95
-18.39
-21.21
-23.79
-26.71
-30.47
-35.33
-41.26
-47.98
-54.97
-61.47
-66.40
-68.57
-66.92
-60.96
-51.04
-38.41
-24.78
-11.84
-0.76
8.06
14.74
19.65
23.03
24.93
25.36
24.52
22.89
21.23
20.28
20.49
21.86
23.98
26.22
28.04
29.14
29.53
29.38
28.82
27.86
26.36
24.17
21.27
17.82
14.15
10.60
7.36
4.34
1.24
-2.27
-6.35
-10.84
-15.32
-19.31
-22.52
-25.02
-27.19
-29.66
-33.06
-37.87
-44.20
-51.61
-59.13
-65.28
-68.38
-67.06
-60.73
-49.89
-35.96
-20.91
-6.55
5.87
15.82
23.31
28.58
31.81
33.13
32.73
31.04
28.75
26.69
25.57
25.75
27.13
29.24
31.46
33.27
34.35
34.64
34.14
32.88
30.81
27.86
24.14
19.94
15.66
11.66
8.13
4.93
1.75
-1.75
-5.76
-10.21
-14.86
-19.38
-23.54
-27.25
-30.65
-34.07
-37.99
-42.96
-49.37
-57.16
-65.60
-73.19
-78.05
-78.40
-73.22
-62.65
-47.93
-31.09
-14.24
0.96
13.60
23.42
30.63
35.59
38.62
39.99
40.03
39.16
37.95
36.98
36.72
37.36
38.73
40.42
41.92
42.81
42.88
42.11
40.59
38.41
35.68
32.41
28.71
24.74
20.70
16.72
12.82
8.87
4.65
-0.03
-5.18
-10.62
-16.04
-21.10
-25.64
-29.75
-33.85
-38.51
-44.35
-51.72
-60.52
-69.96
-78.60
-84.57
-86.05
-81.86
-71.86
-57.11
-39.51
-21.27
-4.31
10.20
21.83
30.75
37.32
41.88
44.67
45.91
45.95
45.29
44.54
44.25
44.74
46.01
47.73
49.41
50.62
51.13
50.94
50.12
48.73
46.64
43.67
39.72
34.89
29.63
24.47
19.83
15.82
12.20
8.48
4.22
-0.77
-6.34
-12.10
-17.55
-22.36
-26.50
-30.28
-34.32
-39.37
-46.03
-54.40
-63.84
-72.86
-79.50
-81.79
-78.44
-69.28
-55.32
-38.49
-20.97
-4.67
9.19
20.10
28.10
33.46
36.49
37.53
36.95
35.35
33.47
32.07
31.72
32.64
34.59
37.01
39.28
40.88
41.55
41.29
40.15
38.27
35.72
32.61
29.05
25.19
21.17
17.04
12.78
8.28
3.51
-1.46
-6.44
-11.15
-15.38
-19.09
-22.49
-26.00
-30.18
-35.52
-42.31
-50.39
-59.00
-66.79
-71.98
-72.86
-68.28
-58.15
-43.52
-26.35
-8.88
6.93
19.89
29.61
36.28
40.30
42.08
41.95
40.35
37.89
35.37
33.64
33.30
34.51
36.92
39.80
42.33
43.85
44.06
43.01
40.96
38.25
35.13
31.65
27.76
23.31
18.16
12.27
5.78
-1.00
-7.67
-13.80
-19.14
-23.68
-27.70
-31.72
-36.32
-42.01
-49.11
-57.62
-67.07
-76.48
-84.30
-88.67
-87.86
-80.88
-67.90
-50.41
-30.75
-11.44
5.60
19.45
30.12
38.09
43.90
47.83
49.95
50.38
49.56
48.18
47.05
46.76
47.47
48.89
50.46
51.62
51.98
51.43
50.03
47.89
45.04
41.48
37.23
32.40
27.23
21.97
16.79
11.68
6.44
0.87
-5.08
-11.26
-17.34
-23.01
-28.13
-32.87
-37.67
-43.13
-49.82
-58.06
-67.59
-77.36
-85.61
-90.15
-89.00
-81.10
-66.82
-47.93
-27.06
-6.88
10.70
24.86
35.72
43.88
49.88
54.01
56.33
56.95
56.21
54.78
53.42
52.77
53.07
54.13
55.39
56.27
56.36
55.56
54.01
51.95
49.45
46.42
42.69
38.18
33.06
27.66
22.40
17.49
12.91
8.39
3.65
-1.42
-6.68
-11.80
-16.49
-20.66
-24.56
-28.68
-33.62
-39.91
-47.73
-56.73
-65.82
-73.33
-77.26
-75.93
-68.50
-55.44
-38.40
-19.81
-2.04
13.17
25.08
33.72
39.50
42.81
43.93
43.08
40.72
37.61
34.72
32.95
32.76
34.09
36.34
38.72
40.47
41.13
40.57
38.86
36.19
32.73
28.65
24.11
19.33
14.55
9.96
5.61
1.38
-2.92
-7.41
-12.08
-16.69
-20.97
-24.76
-28.12
-31.46
-35.36
-40.42
-46.99
-54.90
-63.26
-70.58
-74.94
-74.66
-68.76
-57.44
-42.05
-24.73
-7.69
7.35
19.46
28.47
34.65
38.35
39.90
39.60
37.85
35.25
32.56
30.50
29.60
30.04
31.60
33.80
36.01
37.60
38.11
37.30
35.16
31.90
27.88
23.45
18.92
14.43
9.98
5.41
0.59
-4.55
-9.88
-15.16
-20.17
-24.75
-28.96
-33.00
-37.18
-41.87
-47.39
-54.05
-61.88
-70.50
-78.86
-85.26
-87.73
-84.64
-75.32
-60.51
-42.17
-22.88
-4.99
9.97
21.54
30.06
36.11
40.18
42.48
43.14
42.40
40.79
38.98
37.66
37.23
37.73
38.88
40.23
41.29
41.65
41.07
39.45
36.87
33.50
29.59
25.35
20.94
16.39
11.67
6.73
1.54
-3.81
-9.18
-14.42
-19.40
-24.07
-28.47
-32.75
-37.16
-42.02
-47.76
-54.68
-62.84
-71.71
-80.01
-85.85
-87.21
-82.62
-71.80
-55.85
-36.97
-17.76
-0.34
14.08
25.27
33.62
39.63
43.64
45.76
46.20
45.30
43.73
42.21
41.30
41.24
41.91
42.97
44.03
44.82
45.21
45.12
44.45
43.05
40.79
37.59
33.55
28.93
24.06
19.22
14.58
10.12
5.69
1.16
-3.51
-8.23
-12.85
-17.17
-21.10
-24.72
-28.24
-32.06
-36.66
-42.54
-49.88
-58.35
-66.79
-73.37
-76.03
-73.14
-64.19
-50.13
-33.02
-15.41
0.49
13.34
22.80
29.13
32.89
34.49
34.30
32.66
30.13
27.47
25.46
24.65
25.16
26.72
28.68
30.34
31.15
30.84
29.49
27.37
24.80
22.02
19.10
15.98
12.54
8.63
4.24
-0.60
-5.70
-10.83
-15.73
-20.19
-24.12
-27.57
-30.71
-33.86
-37.43
-41.89
-47.59
-54.47
-61.87
-68.36
-72.09
-71.30
-65.01
-53.49
-38.20
-21.40
-5.31
8.46
19.19
26.91
31.98
34.73
35.38
34.14
31.42
27.95
24.67
22.46
21.83
22.77
24.72
26.90
28.55
29.18
28.67
27.22
25.15
22.72
20.02
16.95
13.32
8.94
3.79
-1.94
-7.87
-13.52
-18.52
-22.70
-26.21
-29.41
-32.81
-36.86
-41.95
-48.25
-55.65
-63.61
-71.08
-76.53
-78.24
-74.90
-66.02
-52.30
-35.49
-17.84
-1.41
12.42
23.13
30.89
36.16
39.37
40.81
40.72
39.43
37.48
35.52
34.15
33.70
34.17
35.20
36.24
36.72
36.29
34.85
32.61
29.95
27.21
24.51
21.64
18.18
13.69
8.03
1.47
-5.33
-11.59
-16.74
-20.69
-23.80
-26.76
-30.28
-34.89
-40.88
-48.23
-56.62
-65.34
-73.16
-78.46
-79.58
-75.31
-65.40
-50.72
-33.10
-14.84
2.02
16.10
26.90
34.62
39.83
43.13
44.94
45.54
45.16
44.09
42.77
41.65
41.10
41.19
41.72
42.25
42.37
41.81
40.54
38.68
36.37
33.67
30.58
27.08
23.20
19.02
14.66
10.14
5.45
0.55
-4.49
-9.52
-14.33
-18.80
-22.96
-27.04
-31.36
-36.28
-42.10
-48.96
-56.77
-64.94
-72.31
-77.17
-77.70
-72.66
-61.90
-46.60
-28.95
-11.40
4.06
16.44
25.62
32.08
36.33
38.69
39.37
38.60
36.84
34.78
33.17
32.56
33.13
34.65
36.57
38.22
39.02
38.69
37.27
35.05
32.46
29.80
27.16
24.34
21.03
17.00
12.25
7.07
1.95
-2.66
-6.51
-9.64
-12.38
-15.10
-18.15
-21.78
-26.17
-31.45
-37.61
-44.34
-50.84
-55.79
-57.65
-55.20
-48.04
-36.84
-23.17
-8.93
4.14
14.96
23.04
28.29
30.81
30.77
28.50
24.67
20.31
16.53
14.22
13.75
14.87
16.88
18.96
20.41
20.92
20.49
19.33
17.61
15.36
12.46
8.76
4.24
-0.89
-6.18
-11.11
-15.26
-18.53
-21.19
-23.72
-26.79
-30.92
-36.33
-42.81
-49.57
-55.41
-58.83
-58.52
-53.70
-44.50
-31.93
-17.65
-3.45
9.17
19.29
26.57
31.10
33.11
32.88
30.77
27.30
23.26
19.59
17.17
16.50
17.49
19.50
21.57
22.88
23.01
22.06
20.44
18.55
16.51
14.11
10.93
6.71
1.52
-4.19
-9.84
-14.94
-19.34
-23.25
-27.10
-31.39
-36.51
-42.66
-49.71
-57.12
-63.91
-68.64
-69.82
-66.31
-57.84
-45.19
-30.03
-14.33
0.21
12.60
22.53
30.11
35.44
38.51
39.31
38.02
35.23
31.91
29.06
27.41
27.17
27.98
29.15
29.94
29.88
28.85
27.05
24.81
22.34
19.66
16.50
12.56
7.63
1.82
-4.46
-10.63
-16.21
-20.93
-24.91
-28.54
-32.40
-37.00
-42.69
-49.47
-56.90
-64.04
-69.49
-71.76
-69.61
-62.53
-51.02
-36.47
-20.77
-5.79
7.18
17.56
25.48
31.33
35.45
37.96
38.84
38.19
36.42
34.26
32.56
31.95
32.62
34.18
35.87
36.94
36.88
35.67
33.61
31.15
28.60
26.00
23.17
19.79
15.65
10.68
5.11
-0.69
-6.25
-11.20
-15.42
-19.00
-22.31
-25.81
-29.99
-35.23
-41.65
-49.02
-56.62
-63.21
-67.18
-66.98
-61.62
-51.19
-36.89
-20.77
-5.05
8.54
19.16
26.79
31.89
34.98
36.36
36.17
34.61
32.15
29.52
27.60
27.03
27.99
30.06
32.43
34.18
34.69
33.80
31.84
29.36
26.90
24.65
22.51
20.11
17.09
13.23
8.64
3.68
-1.20
-5.55
-9.16
-12.10
-14.71
-17.46
-20.87
-25.27
-30.81
-37.26
-44.03
-50.16
-54.40
-55.50
-52.54
-45.25
-34.23
-20.78
-6.65
6.54
17.56
25.83
31.24
33.99
34.38
32.77
29.68
25.88
22.30
19.85
19.05
19.83
21.54
23.22
24.09
23.79
22.54
20.86
19.15
17.52
15.66
13.09
9.48
4.86
-0.36
-5.58
-10.24
-14.09
-17.24
-20.11
-23.31
-27.40
-32.71
-39.13
-46.02
-52.19
-56.21
-56.73
-52.96
-44.94
-33.57
-20.32
-6.83
5.52
15.84
23.71
29.03
31.87
32.41
30.98
28.21
24.97
22.24
20.79
20.91
22.34
24.33
26.00
26.67
26.08
24.45
22.26
19.98
17.83
15.71
13.23
9.91
5.52
0.16
-5.70
-11.39
-16.33
-20.33
-23.64
-26.90
-30.87
-36.13
-42.85
-50.67
-58.66
-65.48
-69.52
-69.40
-64.33
-54.47
-40.98
-25.68
-10.51
3.07
14.32
23.16
29.84
34.62
37.54
38.64
38.11
36.49
34.59
33.24
32.97
33.82
35.34
36.78
37.45
36.93
35.19
32.62
29.72
26.95
24.44
21.99
19.18
15.59
11.07
5.83
0.37
-4.72
-9.05
-12.57
-15.67
-18.95
-23.00
-28.26
-34.89
-42.70
-51.13
-59.22
-65.59
-68.71
-67.27
-60.66
-49.28
-34.56
-18.55
-3.31
9.73
19.96
27.57
33.06
36.91
39.34
40.40
40.21
39.12
37.74
36.72
36.49
37.14
38.37
39.68
40.56
40.66
39.88
38.30
36.09
33.46
30.51
27.31
23.84
20.09
16.08
11.89
7.63
3.40
-0.69
-4.59
-8.26
-11.75
-15.16
-18.70
-22.69
-27.47
-33.25
-39.91
-46.77
-52.67
-56.15
-55.93
-51.35
-42.62
-30.85
-17.68
-4.75
6.70
16.03
23.10
28.00
30.83
31.70
30.76
28.46
25.50
22.75
20.99
20.66
21.71
23.63
25.64
27.01
27.29
26.44
24.76
22.70
20.63
18.63
16.52
13.97
10.69
6.70
2.26
-2.15
-6.08
-9.31
-11.91
-14.18
-16.56
-19.48
-23.27
-28.07
-33.79
-39.97
-45.74
-49.89
-51.12
-48.53
-41.92
-31.99
-20.07
-7.76
3.54
12.93
20.00
24.67
27.02
27.20
25.59
22.77
19.58
16.90
15.41
15.40
16.68
18.66
20.65
22.01
22.44
21.95
20.81
19.38
17.85
16.22
14.29
11.76
8.46
4.49
0.16
-4.05
-7.79
-10.90
-13.53
-16.01
-18.75
-22.07
-26.15
-31.06
-36.67
-42.60
-48.12
-52.11
-53.33
-50.78
-44.12
-33.93
-21.61
-8.88
2.70
12.21
19.40
24.51
27.90
29.80
30.31
29.52
27.70
25.33
23.08
21.56
21.17
21.90
23.40
25.05
26.10
26.05
24.68
22.21
19.09
15.88
12.88
10.13
7.38
4.32
0.77
-3.19
-7.27
-11.15
-14.66
-17.81
-20.82
-24.02
-27.71
-32.14
-37.38
-43.26
-49.34
-54.83
-58.69
-59.82
-57.36
-51.04
-41.30
-29.28
-16.51
-4.46
5.82
13.90
19.89
24.14
26.94
28.46
28.75
27.97
26.48
24.86
23.67
23.26
23.64
24.51
25.45
26.08
26.18
25.64
24.50
22.79
20.59
18.02
15.18
12.18
9.05
5.74
2.17
-1.68
-5.70
-9.69
-13.38
-16.57
-19.25
-21.60
-23.98
-26.77
-30.24
-34.54
-39.64
-45.33
-51.15
-56.30
-59.65
-59.98
-56.31
-48.37
-36.84
-23.23
-9.47
2.75
12.47
19.57
24.51
27.92
30.18
31.40
31.53
30.66
29.15
27.59
26.59
26.50
27.32
28.67
30.00
30.82
30.80
29.86
28.08
25.67
22.80
19.71
16.54
13.41
10.36
7.35
4.29
1.10
-2.26
-5.73
-9.22
-12.56
-15.66
-18.44
-20.96
-23.38
-25.98
-29.12
-33.12
-38.07
-43.62
-48.89
-52.58
-53.33
-50.22
-43.18
-33.03
-21.25
-9.50
0.87
9.14
15.15
19.12
21.30
21.93
21.15
19.22
16.61
13.96
12.00
11.32
12.09
14.04
16.51
18.69
19.90
19.85
18.67
16.73
14.45
12.00
9.33
6.21
2.44
-1.92
-6.56
-11.02
-14.93
-18.11
-20.69
-23.02
-25.54
-28.61
-32.44
-37.04
-42.19
-47.39
-51.87
-54.64
-54.71
-51.37
-44.48
-34.63
-22.98
-10.98
0.04
9.16
15.93
20.33
22.53
22.78
21.40
18.87
15.85
13.11
11.35
10.97
11.95
13.90
16.13
17.93
18.86
18.77
17.87
16.50
14.94
13.24
11.16
8.38
4.72
0.28
-4.55
-9.21
-13.28
-16.61
-19.41
-22.11
-25.24
-29.22
-34.32
-40.47
-47.22
-53.65
-58.46
-60.27
-58.04
-51.53
-41.38
-28.97
-15.93
-3.67
6.93
15.53
22.14
26.82
29.63
30.64
30.08
28.44
26.45
24.84
24.16
24.56
25.77
27.20
28.22
28.40
27.58
25.97
23.92
21.74
19.54
17.11
14.10
10.19
5.32
-0.24
-5.96
-11.27
-15.76
-19.39
-22.44
-25.44
-28.94
-33.41
-39.09
-45.87
-53.22
-60.10
-65.14
-66.89
-64.30
-57.05
-45.81
-31.99
-17.37
-3.56
8.37
17.98
25.37
30.82
34.62
36.96
38.00
37.95
37.12
36.02
35.15
34.90
35.40
36.47
37.68
38.57
38.79
38.19
36.85
34.94
32.62
29.95
26.89
23.36
19.35
14.87
10.06
5.15
0.35
-4.14
-8.20
-11.88
-15.37
-18.95
-22.91
-27.47
-32.79
-38.86
-45.50
-52.23
-58.13
-61.94
-62.29
-58.17
-49.35
-36.63
-21.68
-6.51
7.10
18.07
26.12
31.57
34.94
36.69
37.12
36.52
35.26
33.85
32.85
32.69
33.56
35.25
37.33
39.20
40.36
40.53
39.68
38.01
35.79
33.26
30.53
27.59
24.37
20.80
16.84
12.58
8.17
3.84
-0.22
-3.91
-7.28
-10.50
-13.84
-17.59
-22.04
-27.32
-33.40
-39.93
-46.22
-51.20
-53.62
-52.33
-46.77
-37.22
-24.80
-11.25
1.64
12.54
20.77
26.28
29.40
30.53
29.96
28.04
25.25
22.29
20.00
19.08
19.74
21.64
23.99
25.89
26.71
26.28
24.89
23.02
21.06
19.13
17.07
14.52
11.24
7.22
2.69
-1.91
-6.15
-9.80
-12.87
-15.66
-18.58
-22.08
-26.50
-31.92
-38.19
-44.75
-50.72
-54.89
-56.01
-53.14
-46.00
-35.13
-21.83
-7.81
5.36
16.53
25.15
31.14
34.68
36.06
35.62
33.80
31.21
28.60
26.67
25.91
26.44
27.99
29.97
31.65
32.40
31.89
30.12
27.38
24.15
20.79
17.45
14.08
10.48
6.49
2.11
-2.49
-7.03
-11.26
-15.00
-18.25
-21.14
-23.95
-27.08
-30.96
-35.95
-42.19
-49.35
-56.65
-62.83
-66.42
-66.15
-61.35
-52.18
-39.65
-25.30
-10.81
2.43
13.55
22.22
28.50
32.64
34.97
35.87
35.76
35.09
34.34
33.89
33.98
34.66
35.79
37.08
38.20
38.84
38.82
38.13
36.85
35.09
32.91
30.28
27.14
23.46
19.29
14.75
10.01
5.18
0.33
-4.50
-9.26
-13.85
-18.19
-22.27
-26.24
-30.43
-35.29
-41.18
-48.18
-55.87
-63.25
-68.87
-71.19
-69.01
-61.95
-50.57
-36.31
-21.01
-6.40
6.28
16.50
24.27
29.85
33.56
35.70
36.54
36.46
35.97
35.59
35.70
36.44
37.62
38.86
39.75
40.09
39.88
39.32
38.58
37.73
36.63
35.05
32.78
29.79
26.27
22.56
19.02
15.85
13.01
10.26
7.27
3.84
-0.03
-4.13
-8.11
-11.68
-14.77
-17.53
-20.35
-23.73
-28.11
-33.72
-40.46
-47.76
-54.55
-59.40
-60.89
-58.02
-50.61
-39.48
-26.16
-12.49
-0.03
10.26
18.05
23.44
26.67
27.96
27.54
25.77
23.25
20.76
19.05
18.61
19.51
21.42
23.74
25.86
27.33
27.91
27.57
26.45
24.73
22.60
20.19
17.54
14.61
11.37
7.75
3.82
-0.26
-4.23
-7.88
-11.09
-13.90
-16.50
-19.12
-22.04
-25.48
-29.65
-34.68
-40.48
-46.57
-52.01
-55.54
-55.88
-52.23
-44.54
-33.61
-20.92
-8.11
3.39
12.66
19.37
23.58
25.57
25.65
24.20
21.73
18.91
16.48
15.13
15.22
16.65
18.93
21.30
23.08
23.84
23.51
22.30
20.51
18.36
15.96
13.29
10.32
7.04
3.48
-0.30
-4.22
-8.21
-12.15
-15.93
-19.39
-22.49
-25.27
-28.04
-31.20
-35.26
-40.55
-47.03
-54.09
-60.52
-64.79
-65.38
-61.36
-52.67
-40.29
-25.92
-11.42
1.63
12.36
20.54
26.38
30.21
32.33
32.96
32.43
31.18
29.77
28.71
28.33
28.66
29.49
30.52
31.43
32.01
32.11
31.62
30.50
28.70
26.26
23.27
19.86
16.13
12.18
8.03
3.71
-0.74
-5.24
-9.66
-13.84
-17.64
-21.02
-24.03
-26.91
-30.01
-33.77
-38.62
-44.72
-51.81
-59.01
-64.87
-67.71
-66.10
-59.43
-48.16
-33.77
-18.32
-3.77
8.54
18.08
25.08
30.06
33.52
35.76
36.93
37.20
36.87
36.34
36.03
36.14
36.63
37.26
37.73
37.83
37.51
36.82
35.78
34.36
32.41
29.79
26.49
22.63
18.48
14.30
10.27
6.42
2.64
-1.21
-5.20
-9.26
-13.22
-16.92
-20.26
-23.32
-26.38
-29.78
-33.92
-39.08
-45.35
-52.36
-59.28
-64.82
-67.44
-65.87
-59.51
-48.77
-34.99
-20.07
-5.91
6.12
15.40
21.98
26.30
28.84
30.00
30.02
29.21
27.93
26.68
25.90
25.89
26.69
28.04
29.55
30.78
31.41
31.29
30.42
28.86
26.71
24.10
21.15
18.02
14.86
11.80
8.90
6.13
3.35
0.40
-2.77
-6.17
-9.67
-13.09
-16.32
-19.36
-22.33
-25.54
-29.32
-33.96
-39.53
-45.66
-51.43
-55.51
-56.45
-53.21
-45.64
-34.59
-21.70
-8.81
2.57
11.64
18.26
22.66
25.12
25.82
24.90
22.76
20.04
17.66
16.44
16.83
18.70
21.37
23.93
25.55
25.79
24.68
22.70
20.44
18.34
16.50
14.69
12.44
9.37
5.39
0.76
-4.02
-8.41
-12.08
-14.99
-17.39
-19.66
-22.22
-25.43
-29.59
-34.83
-41.01
-47.51
-53.27
-56.85
-56.90
-52.62
-44.14
-32.49
-19.33
-6.39
5.03
14.24
21.09
25.74
28.37
29.10
28.10
25.78
22.82
20.13
18.57
18.61
20.19
22.74
25.32
27.07
27.47
26.49
24.52
22.10
19.71
17.49
15.30
12.81
9.71
5.85
1.33
-3.53
-8.33
-12.71
-16.56
-19.93
-23.15
-26.62
-30.77
-35.92
-42.23
-49.56
-57.39
-64.69
-70.11
-72.17
-69.83
-62.81
-51.80
-38.29
-24.03
-10.55
1.25
11.14
19.23
25.67
30.49
33.59
34.97
34.92
34.00
32.97
32.46
32.82
34.02
35.68
37.26
38.26
38.41
37.68
36.28
34.44
32.33
29.99
27.34
24.30
20.90
17.23
13.42
9.55
5.59
1.44
-2.91
-7.36
-11.71
-15.72
-19.34
-22.73
-26.27
-30.46
-35.71
-42.21
-49.71
-57.48
-64.26
-68.51
-68.80
-64.24
-54.89
-41.78
-26.64
-11.39
2.44
13.96
23.00
29.80
34.74
38.08
40.04
40.79
40.66
40.09
39.55
39.42
39.80
40.58
41.48
42.21
42.63
42.69
42.43
41.83
40.78
39.06
36.53
33.22
29.36
25.34
21.50
18.05
14.90
11.80
8.44
4.63
0.41
-3.98
-8.22
-12.05
-15.38
-18.36
-21.35
-24.82
-29.28
-35.07
-42.13
-49.79
-56.71
-61.14
-61.43
-56.66
-46.99
-33.78
-19.06
-4.84
7.43
17.11
24.24
29.12
32.00
32.99
32.20
29.93
26.84
23.84
21.81
21.31
22.43
24.74
27.54
30.07
31.79
32.41
31.96
30.62
28.62
26.14
23.31
20.21
16.92
13.45
9.82
5.99
1.97
-2.18
-6.34
-10.32
-13.95
-17.19
-20.16
-23.12
-26.48
-30.64
-35.89
-42.20
-49.11
-55.62
-60.33
-61.73
-58.73
-51.01
-39.32
-25.19
-10.55
2.87
13.96
22.30
27.99
31.35
32.72
32.39
30.76
28.37
25.93
24.13
23.44
23.94
25.33
27.08
28.64
29.63
29.89
29.45
28.39
26.74
24.48
21.60
18.18
14.41
10.51
6.67
2.95
-0.70
-4.43
-8.30
-12.25
-16.13
-19.80
-23.18
-26.43
-29.84
-33.80
-38.68
-44.68
-51.74
-59.39
-66.67
-72.23
-74.51
-72.28
-64.97
-53.09
-38.04
-21.77
-6.19
7.38
18.31
26.58
32.47
36.25
38.15
38.47
37.64
36.28
35.03
34.40
34.62
35.58
36.98
38.44
39.64
40.35
40.46
39.89
38.57
36.44
33.46
29.69
25.31
20.61
15.90
11.43
7.33
3.52
-0.18
-3.99
-8.09
-12.48
-17.03
-21.52
-25.75
-29.67
-33.48
-37.58
-42.49
-48.59
-55.81
-63.45
-70.16
-74.18
-73.87
-68.24
-57.44
-42.75
-26.22
-10.03
4.14
15.48
23.96
30.03
34.21
36.80
37.96
37.85
36.83
35.45
34.32
33.88
34.26
35.25
36.47
37.52
38.11
38.11
37.45
36.12
34.08
31.39
28.13
24.48
20.67
16.92
13.28
9.69
5.96
1.90
-2.57
-7.33
-12.08
-16.45
