1608272778.00
64.000000
-0.00
-0.00
-0.00
-0.00
-0.00
-0.00
-0.00
-0.00
-0.00
-0.00
0.00
0.01
0.01
-0.00
-0.03
-0.05
-0.05
0.00
0.13
0.36
0.66
1.01
1.37
1.72
2.06
2.40
2.79
3.24
3.80
4.42
5.06
5.66
6.20
6.68
7.15
7.68
8.31
9.14
10.09
11.04
11.88
12.56
13.14
13.76
14.65
15.96
17.91
20.32
22.90
25.38
27.58
29.57
31.68
34.32
37.81
42.54
48.15
54.10
59.83
64.97
69.58
74.14
79.34
85.71
93.76
103.00
112.62
121.73
129.77
136.75
143.30
150.75
157.77
166.64
177.95
191.79
206.97
220.57
228.25
225.36
208.53
176.87
132.76
80.05
23.07
-34.94
-92.44
-149.16
-205.23
-260.37
-313.74
-363.87
-409.83
-450.91
-486.50
-515.74
-537.23
-549.22
-549.96
-538.37
-514.21
-478.67
-433.88
-382.45
-327.02
-269.84
-212.63
-156.66
-102.95
-52.37
-5.90
35.58
71.43
101.35
125.50
144.38
158.69
169.15
176.37
180.75
182.57
182.07
179.51
175.23
169.65
163.18
156.15
148.81
141.30
133.69
126.02
118.33
110.69
103.16
95.81
88.68
81.82
75.24
68.95
62.95
57.27
51.89
46.81
42.03
37.53
33.32
29.40
25.80
22.50
19.51
16.81
14.37
12.18
10.19
8.41
6.85
5.50
4.38
3.47
2.72
2.08
1.49
0.93
0.38
-0.11
-0.49
-0.73
-0.83
-0.86
-0.92
-1.12
-1.51
-2.05
-2.63
-3.07
-3.26
-3.20
-3.03
-2.95
-3.18
-3.83
-4.82
-5.90
-6.77
-7.19
-7.14
-6.85
-6.68
-7.01
-8.01
-9.57
-11.29
-12.72
-13.53
-13.67
-13.37
-13.03
-13.07
-13.80
-15.41
-17.97
-21.22
-24.40
-26.22
-25.12
-19.99
-10.80
1.10
13.37
23.56
30.06
32.67
32.32
30.47
28.29
26.31
24.52
22.80
21.24
20.20
20.04
20.82
22.27
23.85
25.02
25.50
25.43
25.23
25.36
26.12
27.44
28.92
29.97
30.12
29.11
27.01
24.13
20.81
17.40
13.83
10.01
5.79
1.15
-3.81
-8.86
-13.72
-18.09
-21.72
-24.43
-26.06
-26.61
-26.23
-25.25
-24.07
-22.98
-22.07
-21.20
-20.18
-18.87
-17.34
-15.81
-14.50
-13.47
-12.58
-11.64
-10.52
-9.29
-8.14
-7.28
-6.76
-6.49
-6.26
-5.87
-5.26
-4.53
-3.91
-3.63
-3.82
-4.48
-5.44
-6.44
-7.22
-7.64
-7.71
-7.57
-7.35
-7.10
-6.84
-6.51
-6.03
-5.33
-4.39
-3.16
-1.58
0.46
3.00
5.97
9.24
12.64
16.11
19.67
23.44
26.97
29.98
32.15
33.26
33.17
31.95
29.87
27.34
24.79
22.59
21.04
20.23
20.06
20.28
20.55
20.53
19.84
18.20
15.36
11.17
5.47
-1.85
-10.78
-21.03
-31.94
-42.51
-51.57
-58.11
-61.48
-61.62
-58.99
-54.46
-49.05
-43.68
-39.10
-35.73
-33.64
-32.65
-32.44
-32.73
-33.44
-34.66
-36.53
-39.07
-42.11
-45.33
-48.40
-51.05
-53.14
-54.47
-54.71
-53.43
-50.29
-45.28
-38.78
-31.46
-23.95
-16.62
-9.52
-2.49
4.57
11.55
18.19
24.16
29.32
33.73
37.63
41.22
44.54
47.40
49.39
50.10
49.27
47.00
43.68
39.95
36.39
33.33
30.81
28.65
26.71
25.02
23.77
23.14
23.12
23.46
23.73
23.52
22.61
21.00
18.89
16.58
14.42
12.73
11.71
11.43
11.68
12.07
12.06
11.27
9.57
7.18
4.54
2.03
-0.17
-2.19
-4.34
-6.96
-10.21
-14.04
-18.24
-22.55
-26.75
-30.56
-33.63
-35.40
-35.27
-32.80
-27.96
-21.34
-13.97
-6.99
-1.34
2.59
4.87
5.90
6.16
6.05
5.86
5.80
6.08
6.81
7.95
9.25
10.29
10.65
10.04
8.52
6.49
4.57
3.33
3.12
3.87
5.15
6.35
6.92
6.62
5.51
3.91
2.18
0.51
-1.11
-2.86
-4.95
-7.48
-10.39
-13.42
-16.27
-18.66
-20.43
-21.56
-22.04
-21.86
-20.89
-18.99
-16.05
-12.15
-7.59
-2.84
1.61
5.31
8.00
9.53
9.84
8.99
7.20
5.00
3.14
2.52
3.75
6.95
11.65
16.93
21.87
25.86
28.79
30.95
32.76
34.41
35.92
37.08
37.74
37.92
37.75
37.40
36.88
36.06
34.74
32.86
30.55
28.15
26.06
24.52
23.51
22.77
21.94
20.72
18.97
16.74
14.17
11.40
8.50
5.49
2.36
-0.88
-4.19
-7.53
-10.83
-13.97
-16.80
-19.17
-20.98
-22.30
-23.38
-24.66
-26.60
-29.50
-33.36
-37.89
-42.60
-47.05
-51.08
-54.88
-58.90
-63.59
-69.19
-75.57
-82.23
-88.35
-92.89
-94.84
-93.36
-88.05
-79.20
-67.81
-55.42
-43.65
-33.72
-26.09
-20.48
-16.12
-12.25
-8.50
-4.89
-1.69
0.84
2.67
4.02
5.20
6.44
7.80
9.15
10.40
11.53
12.71
14.16
15.98
18.04
19.89
21.01
21.10
20.34
19.40
19.24
20.59
23.62
27.74
31.92
35.09
36.68
36.78
36.07
35.38
35.35
36.15
37.47
38.67
38.89
37.21
32.81
25.26
14.76
2.29
-10.57
-22.11
-31.12
-37.36
-41.60
-45.18
-49.25
-54.10
-58.85
-61.77
-61.09
-55.88
-46.55
-34.81
-23.01
-13.26
-6.64
-2.92
-0.84
1.24
4.70
10.25
18.03
27.67
38.38
48.81
57.06
61.06
59.33
51.86
40.53
28.58
19.55
15.87
18.15
25.29
35.27
46.15
56.61
65.84
73.20
77.94
79.34
77.14
71.95
65.16
58.51
53.33
50.16
48.63
47.98
47.60
47.59
48.80
52.31
58.82
67.97
78.29
87.65
94.07
96.48
94.94
90.49
84.48
78.17
72.44
67.80
64.51
62.69
62.28
62.99
64.30
65.59
66.34
66.22
65.11
63.03
60.11
56.55
52.56
48.32
43.95
39.46
34.78
29.84
24.64
19.14
13.26
6.81
-0.41
-8.45
-17.06
-25.64
-33.44
-39.78
-44.29
-47.02
-48.30
-48.55
-48.11
-47.13
-45.67
-43.85
-41.88
-40.02
-38.49
-37.33
-36.48
-35.83
-35.32
-34.96
-34.83
-34.93
-35.19
-35.43
-35.50
-35.31
-34.87
-34.24
-33.45
-32.47
-31.29
-29.92
-28.47
-27.12
-26.08
-25.45
-25.22
-25.28
-25.48
-25.64
-25.70
-25.61
-25.38
-25.07
-24.71
-24.39
-24.15
-24.05
-24.14
-24.41
-24.93
-25.78
-27.09
-28.98
-31.50
-34.53
-37.82
-41.00
-43.74
-45.78
-46.95
-47.20
-46.50
-44.88
-42.44
-39.34
-35.86
-32.27
-28.84
-25.79
-23.27
-21.35
-20.01
-19.09
-18.33
-17.44
-16.20
-14.52
-12.52
-10.40
-8.36
-6.45
-4.61
-2.70
-0.64
1.47
3.46
5.14
6.40
7.32
8.01
8.62
9.18
9.59
9.68
9.34
8.59
7.61
6.68
5.99
5.57
5.28
4.86
4.09
2.92
1.48
0.05
-1.13
-1.97
-2.52
-2.89
-3.12
-3.12
-2.70
-1.68
-0.10
1.86
3.91
5.83
7.56
9.18
10.79
12.45
14.11
15.69
17.18
18.72
20.44
22.41
24.47
26.29
27.45
27.67
26.91
25.27
22.92
19.90
16.20
11.84
7.05
2.30
-1.79
-4.77
-6.51
-7.33
-7.74
-8.25
-9.10
-10.19
-11.24
-11.96
-12.27
-12.32
-12.35
-12.58
-13.09
-13.75
-14.32
-14.62
-14.58
-14.29
-13.93
-13.67
-13.58
-13.65
-13.76
-13.83
-13.82
-13.71
-13.51
-13.14
-12.56
-11.72
-10.68
-9.57
-8.55
-7.66
-6.86
-5.98
-4.88
-3.53
-2.06
-0.70
0.30
0.85
1.02
1.04
1.10
1.32
1.62
1.83
1.82
1.60
1.31
1.17
1.32
1.71
2.16
2.42
2.40
2.13
1.77
1.45
1.11
0.64
-0.09
-1.06
-2.10
-2.97
-3.50
-3.68
-3.64
-3.56
-3.53
-3.57
-3.60
-3.58
-3.55
-3.56
-3.68
-3.91
-4.21
-4.49
-4.72
-4.96
-5.29
-5.83
-6.60
-7.51
-8.40
-9.04
-9.32
-9.26
-8.99
-8.68
-8.41
-8.10
-7.60
-6.78
-5.69
-4.48
-3.40
-2.59
-2.01
-1.56
-1.15
-0.79
-0.59
-0.61
-0.80
-0.96
-0.84
-0.33
0.48
1.34
1.98
2.27
2.23
2.00
1.67
1.25
0.67
-0.09
-0.98
-1.87
-2.65
-3.28
-3.87
-4.56
-5.45
-6.48
-7.48
-8.27
-8.79
-9.17
-9.68
-10.63
-12.22
-14.42
-17.01
-19.72
-22.29
-24.68
-26.96
-29.32
-31.91
-34.82
-38.02
-41.43
-44.95
-48.57
-52.39
-56.56
-61.21
-66.38
-71.93
-77.59
-83.01
-87.89
-92.05
-95.47
-98.21
-100.36
-101.93
-102.86
-103.04
-102.25
-100.11
-96.00
-89.11
-78.73
-64.69
-47.72
-29.43
-11.98
2.67
13.33
19.93
23.34
24.74
25.14
25.04
24.47
23.30
21.56
19.61
17.96
17.12
17.35
18.64
20.86
23.98
28.18
33.87
41.43
50.95
62.06
73.76
84.57
92.91
97.50
97.85
94.41
88.54
82.10
76.89
74.12
74.03
75.91
78.46
80.31
80.51
78.78
75.38
70.81
65.38
58.97
51.06
40.90
27.91
12.14
-5.44
-22.96
-37.92
-47.85
-51.10
-47.42
-38.23
-26.10
-13.85
-3.58
4.00
9.52
14.28
19.54
25.85
33.08
40.81
48.81
57.19
66.23
75.99
85.97
95.13
102.28
106.52
107.70
106.36
103.45
99.86
96.03
91.83
86.86
80.72
73.35
65.13
56.76
48.97
42.34
37.04
32.85
29.21
25.46
21.04
15.74
9.69
3.30
-2.90
-8.50
-13.36
-17.61
-21.49
-25.21
-28.77
-31.99
-34.56
-36.27
-37.07
-37.19
-36.91
-36.51
-36.11
-35.71
-35.23
-34.61
-33.87
-33.08
-32.25
-31.35
-30.28
-28.99
-27.45
-25.75
-23.98
-22.20
-20.46
-18.74
-17.07
-15.46
-13.95
-12.55
-11.25
-10.02
-8.82
-7.62
-6.43
-5.31
-4.29
-3.39
-2.55
-1.68
-0.72
0.37
1.46
2.43
3.13
3.47
3.51
3.33
3.02
2.60
2.02
1.26
0.36
-0.53
-1.29
-1.83
-2.27
-2.76
-3.49
-4.47
-5.56
-6.54
-7.25
-7.71
-8.08
-8.63
-9.50
-10.63
-11.82
-12.84
-13.53
-13.97
-14.32
-14.70
-15.13
-15.51
-15.66
-15.52
-15.14
-14.66
-14.22
-13.86
-13.50
-13.02
-12.38
-11.65
-11.03
-10.66
-10.60
-10.74
-10.89
-10.84
-10.53
-10.00
-9.44
-9.05
-8.96
-9.14
-9.48
-9.74
-9.80
-9.60
-9.26
-8.91
-8.70
-8.67
-8.81
-9.07
-9.40
-9.78
-10.16
-10.48
-10.64
-10.58
-10.29
-9.84
-9.31
-8.77
-8.19
-7.58
-6.95
-6.43
-6.16
-6.25
-6.65
-7.16
-7.50
-7.46
-6.99
-6.23
-5.42
-4.71
-4.14
-3.64
-3.11
-2.53
-1.93
-1.43
-1.05
-0.81
-0.66
-0.52
-0.38
-0.28
-0.27
-0.40
-0.69
-1.10
-1.54
-1.96
-2.26
-2.45
-2.57
-2.68
-2.87
-3.14
-3.45
-3.71
-3.88
-3.93
-3.92
-3.88
-3.80
-3.61
-3.28
-2.81
-2.32
-2.01
-2.05
-2.53
-3.31
-4.10
-4.60
-4.63
-4.22
-3.61
-3.08
-2.86
-2.97
-3.23
-3.46
-3.48
-3.30
-2.96
-2.53
-2.05
-1.51
-0.91
-0.29
0.23
0.60
0.79
0.88
0.94
1.05
1.26
1.57
2.01
2.57
3.21
3.87
4.45
4.91
5.23
5.47
5.66
5.80
5.82
5.64
5.19
4.54
3.81
3.22
2.95
3.07
3.52
4.08
4.46
4.36
3.59
2.08
-0.07
-2.69
-5.50
-8.23
-10.64
-12.53
-13.76
-14.31
-14.25
-13.77
-13.11
-12.47
-11.98
-11.65
-11.43
-11.25
-11.07
-10.89
-10.77
-10.74
-10.75
-10.73
-10.56
-10.17
-9.56
-8.82
-8.08
-7.43
-6.92
-6.51
-6.14
-5.76
-5.37
-4.95
-4.52
-4.05
-3.49
-2.83
-2.03
-1.17
-0.32
0.43
1.06
1.55
1.94
2.24
2.49
2.74
3.02
3.38
3.85
4.42
4.96
5.38
5.58
5.54
5.36
5.18
5.16
5.34
5.72
6.19
6.59
6.81
6.78
6.52
6.10
5.62
5.12
4.63
4.09
3.45
2.66
1.68
0.55
-0.63
-1.74
-2.67
-3.39
-3.94
-4.49
-5.22
-6.22
-7.47
-8.82
-10.09
-11.15
-11.85
-12.09
-11.67
-10.42
-8.26
-5.33
-1.99
1.26
4.02
6.12
7.66
8.88
9.97
10.96
11.72
12.12
12.08
11.68
11.07
10.39
9.68
8.90
8.00
6.98
5.92
4.94
4.15
3.56
3.10
2.62
2.01
1.25
0.43
-0.32
-0.90
-1.36
-1.85
-2.56
-3.62
-4.98
-6.45
-7.80
-8.86
-9.59
-10.14
-10.74
-11.59
-12.82
-14.39
-16.18
-18.02
-19.80
-21.49
-23.18
-24.98
-27.01
-29.38
-32.16
-35.31
-38.61
-41.55
-43.31
-42.92
-39.58
-33.03
-23.78
-12.97
-2.03
7.83
15.89
22.04
26.49
29.49
31.19
31.63
30.93
29.42
27.60
25.99
24.93
24.45
24.38
24.50
24.72
25.12
25.85
27.02
28.49
29.94
30.96
31.25
30.71
29.47
27.73
25.64
23.31
20.79
18.20
15.68
13.32
11.06
8.68
5.85
2.37
-1.68
-5.89
-9.72
-12.76
-14.89
-16.36
-17.64
-19.19
-21.32
-24.14
-27.58
-31.39
-35.08
-37.94
-39.02
-37.42
-32.62
-24.68
-14.42
-3.13
7.76
17.17
24.52
29.82
33.36
35.48
36.42
36.31
35.25
33.47
31.31
29.18
27.40
26.09
25.19
24.49
23.81
23.06
22.28
21.53
20.83
20.07
19.04
17.53
15.44
12.85
10.02
7.27
4.80
2.59
0.48
-1.80
-4.37
-7.14
-9.83
-12.11
-13.84
-15.15
-16.42
-18.06
-20.30
-23.09
-26.09
-28.91
-31.27
-33.13
-34.68
-36.25
-38.12
-40.54
-43.67
-47.48
-51.73
-55.71
-58.30
-58.13
-54.06
-45.65
-33.49
-19.10
-4.46
8.68
19.28
27.14
32.68
36.50
38.99
40.33
40.58
39.95
38.83
37.74
37.10
36.98
37.18
37.28
36.95
36.10
34.93
33.78
32.93
32.47
32.19
31.75
30.80
29.09
26.65
23.68
20.55
17.65
15.27
13.52
12.28
11.29
10.20
8.75
6.83
4.57
2.22
0.07
-1.68
-3.02
-4.11
-5.26
-6.72
-8.60
-10.83
-13.14
-15.26
-17.02
-18.40
-19.58
-20.78
-22.21
-24.04
-26.37
-29.13
-32.02
-34.42
-35.42
-34.09
-29.80
-22.57
-13.12
-2.71
7.29
15.79
22.25
26.66
29.37
30.81
31.36
31.23
30.56
29.42
27.93
26.24
24.52
22.89
21.39
19.96
18.47
16.87
15.18
13.53
12.02
10.68
9.38
7.98
6.34
4.47
2.49
0.59
-1.08
-2.47
-3.62
-4.65
-5.65
-6.74
-7.97
-9.33
-10.68
-11.83
-12.59
-12.80
-12.45
-11.67
-10.69
-9.75
-9.03
-8.61
-8.51
-8.64
-8.91
-9.23
-9.47
-9.56
-9.44
-9.13
-8.70
-8.23
-7.76
-7.25
-6.51
-5.33
-3.57
-1.22
1.51
4.28
6.77
8.77
10.23
11.22
11.86
12.23
12.40
12.48
12.65
13.08
13.84
14.84
15.79
16.39
16.44
15.95
15.10
14.13
13.18
12.30
11.40
10.43
9.35
8.19
6.94
5.52
3.85
1.94
-0.13
-2.15
-3.97
-5.50
-6.87
-8.28
-9.95
-11.96
-14.18
-16.36
-18.18
-19.46
-20.20
-20.61
-20.96
-21.43
-22.03
-22.61
-22.88
-22.58
-21.56
-19.83
-17.56
-15.05
-12.63
-10.58
-8.97
-7.68
-6.42
-4.96
-3.28
-1.69
-0.70
-0.72
-1.72
-3.16
-4.11
-3.74
-1.73
1.51
4.94
7.44
8.27
7.43
5.70
4.27
4.20
5.86
8.75
11.72
13.46
13.14
10.82
7.34
4.00
2.03
2.44
5.94
12.85
22.60
33.06
40.35
39.61
26.98
1.74
-32.67
-69.49
-101.26
-122.83
-133.22
-135.17
-133.13
-130.72
-129.27
-128.10
-125.97
-122.53
-118.74
-116.34
-116.63
-119.75
-124.60
-129.49
-133.05
-134.57
-134.12
-131.90
-127.75
-121.04
-111.19
-98.22
-83.15
-67.65
-53.29
-40.58
-28.57
-15.21
1.60
22.79
47.41
72.77
95.26
111.66
120.08
120.49
114.44
104.36
92.82
81.97
73.22
67.31
64.34
63.90
65.14
66.97
68.32
68.69
68.27
67.88
68.47
70.60
74.12
78.33
82.37
85.76
88.54
91.09
93.75
96.44
98.65
99.65
98.83
95.97
91.23
85.14
78.27
71.24
64.72
59.34
55.51
52.96
50.13
44.09
31.14
8.08
-26.42
-71.07
-122.11
-174.41
-222.75
-262.93
-292.17
-309.11
-313.64
-306.73
-290.35
-267.15
-240.02
-211.36
-182.71
-154.68
-127.34
-100.57
-74.29
-48.38
-22.51
3.76
30.70
57.99
84.66
109.27
130.40
147.25
159.93
169.32
176.73
183.40
190.18
197.44
205.12
212.82
220.04
226.18
230.75
233.59
234.97
235.55
236.13
237.26
239.02
240.76
241.11
238.02
229.14
212.41
186.71
152.40
111.38
66.39
20.02
-26.10
-71.49
-116.34
-160.64
-203.72
-244.04
-279.70
-309.00
-330.76
-344.29
-349.36
-346.38
-336.88
-323.70
-310.51
-300.64
-295.64
-294.51
-294.36
-291.96
-285.53
-275.39
-263.27
-250.59
-237.20
-221.02
-199.23
-170.02
-133.65
-92.38
-49.24
-6.74
33.77
71.64
106.15
135.95
159.22
174.52
181.66
181.97
177.94
172.32
167.30
164.08
162.77
162.79
163.33
163.63
163.22
161.83
159.31
155.56
150.53
144.46
137.88
131.61
126.50
123.01
120.93
119.39
117.31
113.99
109.47
104.50
99.94
96.18
92.54
87.34
78.25
63.13
40.86
12.08
-20.66
-53.30
-81.33
-101.11
-110.94
-111.43
-104.99
-94.71
-83.18
-71.74
-60.54
-49.11
-37.00
-24.25
-11.32
1.12
12.58
22.84
32.05
40.50
48.46
55.89
62.33
67.01
69.01
67.75
63.19
56.04
47.59
39.41
32.87
28.85
27.58
28.72
31.58
35.38
39.39
42.93
45.30
45.78
43.74
38.90
31.52
22.56
13.39
5.39
-0.42
-3.74
-4.91
-4.71
-3.93
-3.18
-2.75
-2.69
-2.95
-3.50
-4.38
-5.57
-7.07
-8.74
-10.46
-12.15
-13.91
-15.97
-18.67
-22.22
-26.52
-30.93
-34.34
-35.45
-33.19
-27.21
-18.05
-7.06
4.13
14.05
21.85
27.37
30.95
33.13
34.39
35.03
35.22
35.11
34.88
34.74
34.86
35.31
35.96
36.61
37.00
36.97
36.54
35.84
35.09
34.40
33.70
32.83
31.57
29.87
27.80
25.58
23.48
21.65
20.12
18.80
17.52
16.17
14.69
13.11
11.54
10.04
8.64
7.32
6.04
4.79
3.48
1.94
-0.15
-3.11
-7.11
-12.05
-17.61
-23.39
-29.09
-34.48
-39.27
-42.87
-44.45
-43.15
-38.60
-31.19
-22.05
-12.71
-4.52
1.70
5.69
7.54
7.41
5.46
1.98
-2.59
-7.52
-12.00
-15.38
-17.36
-18.03
-17.79
-17.21
-16.84
-17.09
-18.22
-20.34
-23.44
-27.41
-32.14
-37.53
-43.55
-50.28
-57.87
-66.66
-76.98
-88.92
-101.91
-114.40
-123.79
-126.93
-121.19
-105.53
-81.24
-51.79
-21.80
4.33
23.71
35.52
40.81
41.62
40.03
37.38
34.24
30.67
26.74
22.94
20.18
19.56
21.93
27.58
36.12
46.60
57.82
68.60
78.06
85.65
91.15
94.64
96.42
96.88
96.39
95.27
93.79
92.18
90.61
89.15
87.68
85.92
83.57
80.59
77.21
73.78
70.39
66.50
60.95
52.43
40.25
24.92
8.18
-7.61
-20.55
-29.83
-35.84
-39.56
-41.77
-42.71
-42.24
-40.44
-37.86
-35.31
-33.15
-30.82
-26.91
-19.96
-9.59
3.06
15.58
25.41
30.94
32.04
29.84
25.97
21.85
18.37
15.97
14.96
15.64
18.24
22.79
28.90
36.01
43.53
51.12
58.79
66.80
75.47
85.03
95.64
107.35
120.16
133.88
148.00
161.59
173.39
182.20
187.28
188.52
186.26
180.80
171.80
158.13
138.24
110.87
75.59
33.08
-15.39
-68.40
-124.61
-182.16
-237.73
-286.00
-320.17
-333.72
-322.58
-286.66
-229.76
-158.06
-78.04
5.00
87.21
165.47
236.61
297.17
344.06
375.46
391.30
393.07
383.10
363.77
337.22
305.41
270.21
233.26
195.64
157.57
118.49
77.53
34.18
-11.28
-57.96
-104.60
-150.28
-194.73
-238.37
-282.20
-327.63
-376.56
-430.97
-492.02
-558.61
-626.27
-687.27
-732.43
-754.24
-749.66
-721.32
-676.36
-623.51
-570.01
-519.85
-473.83
-430.95
-389.98
-350.22
-311.40
-273.19
-234.91
-195.74
-155.31
-113.87
-72.23
-31.41
8.07
46.69
86.05
128.33
175.11
225.92
277.29
323.21
356.85
373.17
371.08
353.96
328.39
301.50
278.54
261.54
249.73
240.93
233.19
225.51
217.79
210.11
202.25
193.69
183.92
172.92
161.18
149.63
139.12
129.93
121.64
113.25
103.61
91.96
78.24
63.12
47.84
33.71
21.70
12.25
5.25
0.19
-3.52
-6.32
-8.44
-9.91
-10.69
-10.85
-10.54
-10.00
-9.47
-9.10
-8.96
-9.06
-9.42
-10.06
-11.06
-12.45
-14.18
-16.04
-17.74
-19.00
-19.63
-19.61
-19.11
-18.38
-17.69
-17.24
-17.10
-17.24
-17.57
-18.02
-18.53
-19.12
-19.85
-20.81
-22.04
-23.48
-24.93
-26.02
-26.35
-25.62
-23.78
-21.06
-17.87
-14.64
-11.63
-8.86
-6.22
-3.59
-1.00
1.35
3.16
4.26
4.67
4.68
4.63
4.79
5.21
5.75
6.17
6.31
6.16
5.85
5.57
5.48
5.62
5.94
6.33
6.63
6.68
6.33
5.49
4.18
2.55
0.84
-0.68
-1.82
-2.48
-2.68
-2.52
-2.13
-1.61
-1.05
-0.52
-0.11
0.04
-0.27
-1.27
-3.04
-5.43
-8.09
-10.57
-12.59
-14.20
-15.77
-17.67
-19.98
-22.24
-23.50
-22.74
-19.32
-13.38
-5.83
2.01
8.81
13.53
15.55
14.78
11.69
7.36
3.27
0.94
1.25
4.07
8.27
12.29
15.05
16.51
17.60
19.47
22.62
26.41
29.45
30.45
29.06
26.34
24.41
25.71
32.15
44.36
61.25
79.99
96.24
105.08
102.59
87.55
62.62
34.10
10.11
-2.19
1.20
19.62
48.19
79.62
106.66
124.05
129.62
124.02
109.75
90.23
68.49
46.56
25.76
7.17
-8.14
-19.06
-25.21
-27.40
-26.98
-26.04
-26.48
-29.32
-34.31
-40.28
-45.22
-47.30
-45.36
-38.46
-27.05
-12.75
2.26
16.14
27.91
38.14
47.87
53.50
52.71
44.87
31.34
14.40
-2.30
-18.35
-33.16
-46.52
-59.35
-71.22
-82.31
-92.84
-102.60
-110.65
-115.84
-116.90
-113.57
-106.81
-97.78
-87.97
-78.57
-70.22
-63.00
-56.86
-51.49
-46.85
-43.13
-40.15
-37.75
-35.66
-33.57
-31.18
-28.45
-25.36
-22.23
-19.56
-17.62
-16.53
-16.16
-16.10
-15.91
-15.33
-14.28
-12.97
-11.67
-10.50
-9.33
-7.91
-6.01
-3.62
-1.01
1.43
3.34
4.62
5.37
5.84
6.26
6.74
7.30
7.90
8.52
9.10
9.58
9.82
9.69
9.13
8.17
6.95
5.62
4.29
2.98
1.71
0.48
-0.69
-1.76
-2.73
-3.60
-4.41
-5.13
-5.74
-6.17
-6.41
-6.51
-6.67
-7.18
-8.39
-10.54
-13.69
-17.67
-22.04
-26.24
-29.80
-32.52
-34.58
-36.47
-38.71
-41.62
-45.15
-48.85
-52.11
-54.31
-55.00
-53.83
-50.44
-44.46
-35.71
-24.53
-12.06
-0.06
9.68
16.03
19.01
19.62
19.26
18.96
19.02
19.20
19.23
19.35
20.39
23.44
29.24
37.78
48.25
59.46
70.30
80.03
88.36
95.32
101.04
105.58
108.92
110.96
111.53
110.48
107.63
102.60
94.82
83.52
68.12
48.70
26.40
3.47
-17.20
-32.91
-41.98
-44.21
-40.69
-33.24
-23.61
-13.06
-2.29
8.20
17.85
25.87
31.38
33.72
32.50
27.40
17.90
3.34
-16.61
-41.20
-68.07
-93.49
-113.40
-124.76
-126.36
-118.87
-104.04
-83.89
-60.30
-35.30
-11.44
8.29
21.24
26.18
23.82
16.52
7.09
-2.47
-11.61
-20.95
-31.61
-44.55
-60.18
-78.28
-97.96
-117.62
-134.99
-147.57
-153.39
-151.92
-144.33
-133.21
-121.54
-111.53
-104.05
-98.51
-93.60
-88.05
-81.23
-73.24
-64.70
-56.29
-48.53
-41.61
-35.35
-29.26
-22.64
-14.64
-4.52
8.06
22.72
38.28
52.88
64.51
71.67
73.90
71.90
67.21
61.62
56.65
53.19
51.61
51.83
53.50
55.95
58.29
59.42
58.38
54.78
49.10
42.68
37.32
34.52
34.87
37.76
41.65
44.67
45.36
43.20
38.74
33.28
28.29
24.85
23.39
23.79
25.68
28.80
32.99
38.07
43.58
48.72
52.49
53.94
52.50
48.12
41.21
32.39
22.38
11.84
1.36
-8.45
-16.98
-23.48
-27.13
-27.15
-23.09
-15.12
-4.16
8.37
20.97
32.64
43.06
52.51
61.45
70.14
78.48
86.15
92.84
98.28
102.28
104.47
104.33
101.33
95.17
85.99
74.39
61.30
47.72
34.66
22.90
13.07
5.52
0.34
-2.63
-3.69
-3.12
-1.18
1.86
5.58
9.40
12.65
14.81
15.75
15.70
15.11
14.34
13.47
12.28
10.36
7.42
3.35
-1.70
-7.45
-13.60
-19.89
-26.08
-31.91
-37.13
-41.53
-45.06
-47.81
-50.01
-51.92
-53.65
-55.12
-56.10
-56.36
-55.72
-54.20
-51.99
-49.30
-46.41
-43.49
-40.70
-38.13
-35.86
-33.91
-32.24
-30.80
-29.49
-28.28
-27.13
-25.95
-24.59
-22.87
-20.77
-18.46
-16.36
-14.97
-14.64
-15.40
-16.93
-18.75
-20.38
-21.58
-22.32
-22.70
-22.78
-22.51
-21.81
-20.64
-19.14
-17.58
-16.27
-15.33
-14.75
-14.33
-13.85
-13.21
-12.38
-11.42
-10.35
-9.15
-7.74
-6.11
-4.34
-2.57
-0.98
0.30
1.26
1.92
2.28
2.30
1.92
1.15
0.12
-0.97
-1.90
-2.62
-3.24
-4.04
-5.30
-7.15
-9.56
-12.28
-15.03
-17.56
-19.72
-21.50
-22.97
-24.24
-25.41
-26.56
-27.74
-28.88
-29.92
-30.71
-31.13
-31.09
-30.58
-29.68
-28.53
-27.33
-26.26
-25.47
-24.96
-24.61
-24.17
-23.43
-22.31
-20.93
-19.51
-18.29
-17.39
-16.78
-16.30
-15.76
-14.96
-13.74
-11.87
-9.17
-5.56
-1.26
3.24
7.27
10.23
11.91
12.49
12.48
12.42
12.63
13.10
13.57
13.75
13.46
12.76
11.82
10.86
10.00
9.25
8.54
7.79
6.91
5.90
4.74
3.45
2.03
0.46
-1.28
-3.16
-5.14
-7.09
-8.90
-10.54
-12.09
-13.75
-15.69
-17.88
-19.92
-21.09
-20.57
-17.79
-12.64
-5.65
2.25
10.04
16.93
22.56
26.94
30.22
32.54
33.95
34.46
34.23
33.55
32.86
32.50
32.59
32.95
33.20
32.98
32.15
30.87
29.48
28.29
27.42
26.75
25.98
24.80
23.06
20.77
18.09
15.24
12.40
9.68
7.13
4.74
2.43
0.13
-2.28
-4.86
-7.58
-10.32
-12.87
-15.05
-16.77
-18.10
-19.24
-20.49
-22.11
-24.29
-26.98
-29.85
-32.29
-33.50
-32.70
-29.45
-23.82
-16.40
-8.12
-0.01
7.16
12.93
17.19
20.02
21.56
21.93
21.30
19.89
18.06
16.20
14.67
13.67
13.17
12.95
12.69
12.15
11.20
9.94
8.57
7.31
6.29
5.48
4.73
3.82
2.55
0.79
-1.49
-4.16
-7.03
-9.86
-12.42
-14.62
-16.49
-18.21
-19.98
-21.94
-24.09
-26.29
-28.38
-30.15
-31.52
-32.49
-33.18
-33.76
-34.46
-35.43
-36.70
-37.96
-38.51
-37.23
-32.94
-24.78
-12.67
2.47
18.90
34.52
47.51
56.80
62.24
64.36
64.00
61.94
58.74
54.80
50.42
45.96
41.69
37.72
33.91
29.94
25.54
20.65
15.55
10.66
6.40
2.87
-0.10
-2.87
-5.71
-8.70
-11.72
-14.63
-17.40
-20.13
-22.95
-25.84
-28.54
-30.67
-31.93
-32.28
-32.02
-31.59
-31.38
-31.53
-31.82
-31.97
-31.73
-31.03
-30.00
-28.86
-27.85
-27.16
-26.90
-27.26
-28.44
-30.57
-33.41
-36.22
-37.82
-36.99
-32.96
-25.65
-15.89
-5.15
4.93
13.12
18.91
22.38
23.94
24.11
23.51
22.58
21.43
19.90
17.87
15.45
12.73
9.83
6.87
4.52
3.26
2.93
2.66
1.50
-1.07
-5.22
-10.70
-16.81
-21.92
-24.81
-25.69
-26.11
-27.69
-31.00
-35.76
-40.96
-45.35
-46.98
-44.79
-39.68
-34.39
-31.88
-34.36
-44.04
-63.30
-98.23
-149.13
-207.35
-257.89
-289.01
-297.34
-283.36
-250.57
-203.57
-150.17
-97.19
-49.27
-8.69
24.09
50.26
71.98
91.07
108.97
127.10
148.13
174.38
206.13
240.84
274.08
300.83
316.75
319.57
309.84
291.32
268.76
245.60
222.85
199.86
175.89
151.13
127.04
105.69
88.89
76.83
67.80
59.14
48.79
36.33
22.78
9.87
-0.94
-8.88
-13.95
-16.70
-17.79
-17.66
-16.43
-14.16
-10.99
-7.27
-3.38
0.22
3.12
5.02
5.72
5.13
3.20
-0.23
-5.44
-12.83
-22.60
-34.51
-47.61
-60.17
-70.08
-75.28
-74.46
-67.48
-55.47
-40.51
-25.02
-10.95
0.65
9.93
17.92
25.96
34.96
44.91
54.79
63.01
68.28
70.27
69.79
68.28
66.90
65.68
63.96
61.11
57.19
52.79
48.30
43.32
36.85
28.51
19.84
15.11
19.94
38.33
69.78
108.60
146.15
174.74
190.96
195.82
193.25
186.87
177.55
163.88
144.74
121.94
100.54
86.06
79.64
78.48
77.64
73.25
65.04
56.55
52.60
55.70
63.75
68.24
62.20
44.37
18.98
-8.14
-33.32
-56.61
-80.67
-108.58
-145.90
-192.75
-243.83
-292.27
-334.45
-371.42
-407.23
-446.31
-491.09
-546.20
-608.46
-666.49
-705.84
-716.48
-696.72
-652.42
-593.75
-493.71
-351.51
-190.97
-43.95
71.34
153.28
207.91
242.47
263.63
276.93
281.02
276.51
266.33
253.92
240.35
225.25
209.56
196.96
192.15
194.82
203.61
215.71
225.94
226.71
211.45
178.66
133.21
83.20
34.98
-5.64
-35.56
-54.92
-66.99
-76.30
-86.98
-102.33
-126.74
-164.40
-212.09
-263.15
-307.91
-336.75
-343.41
-327.10
-284.61
-225.91
-168.48
-126.51
-104.34
-97.45
-98.75
-103.34
-109.52
-116.09
-124.32
-133.44
-140.68
-143.47
-140.64
-132.61
-120.53
-104.60
-87.81
-71.54
-54.80
-35.08
-10.33
19.91
54.24
90.22
125.37
158.01
187.39
214.37
240.96
269.13
300.10
333.94
369.54
404.57
435.42
457.64
467.08
461.23
440.08
406.49
365.51
322.99
283.84
250.63
223.49
200.70
180.02
159.75
139.20
118.47
97.87
77.54
57.47
38.12
20.54
6.24
-3.42
-8.04
-8.63
-7.39
-6.71
-8.14
-11.72
-16.39
-20.81
-24.16
-26.43
-28.19
-30.03
-32.01
-33.53
-33.52
-31.41
-27.61
-23.25
-19.68
-17.98
-18.59
-21.32
-25.55
-30.12
-34.41
-38.20
-41.19
-42.56
-41.39
-37.09
-29.73
-19.98
-8.10
4.93
17.65
28.79
37.65
43.88
47.71
50.17
53.15
59.50
70.10
83.04
94.39
99.87
95.73
80.73
56.65
22.23
-16.86
-51.29
-73.97
-84.34
-86.28
-85.05
-83.13
-79.95
-75.96
-69.16
-60.48
-53.11
-50.21
-53.32
-64.33
-83.67
-110.44
-138.08
-161.04
-176.23
-183.14
-183.37
-180.11
-180.02
-188.24
-205.91
-230.06
-256.15
-280.93
-303.42
-323.95
-324.86
-296.89
-243.80
-178.99
-115.24
-59.84
-15.66
16.32
36.50
45.82
43.99
33.22
19.55
11.49
15.99
35.78
66.80
102.53
134.49
153.88
156.83
146.04
128.53
111.18
98.57
91.80
90.42
93.78
100.88
111.80
127.19
147.28
165.35
175.34
171.60
151.01
113.69
62.87
4.76
-52.98
-103.44
-142.65
-169.51
-185.74
-193.99
-196.16
-192.64
-182.38
-164.07
-137.50
-104.11
-65.89
-25.07
16.87
59.40
102.85
148.10
196.40
249.06
306.49
367.37
427.30
479.05
514.23
526.19
512.59
476.50
425.39
368.06
311.84
260.52
214.25
171.16
129.10
86.72
43.37
-1.66
-49.61
-101.81
-158.27
-216.27
-270.17
-312.85
-338.89
-347.88
-345.85
-343.44
-351.52
-375.99
-414.95
-459.63
-498.28
-521.29
-524.28
-508.27
-477.47
-436.51
-388.54
-335.28
-278.09
-219.23
-162.34
-111.53
-69.69
-36.89
-9.88
16.79
48.18
86.08
127.73
166.86
197.38
217.60
231.90
248.51
274.27
309.60
347.23
375.69
385.63
374.93
349.49
319.14
291.72
268.62
244.49
210.95
161.54
95.13
16.53
-65.26
-139.65
-196.86
-230.06
-236.80
-220.30
-189.19
-155.15
-128.98
-116.25
-114.93
-116.31
-109.20
-85.72
-45.69
2.76
46.64
73.94
78.97
64.63
40.98
20.57
13.05
21.49
41.64
64.25
78.57
76.38
54.77
17.05
-28.33
-70.07
-96.99
-100.93
-78.70
-33.49
25.68
86.20
135.31
163.87
168.93
154.16
127.40
96.99
67.94
41.46
17.11
-4.57
-21.14
-30.20
-32.63
-34.87
-47.08
-79.00
-133.84
-204.37
-274.63
-326.19
-346.17
-331.62
-288.69
-227.62
-158.54
-88.46
-20.94
41.38
94.56
132.71
149.91
142.26
116.22
85.93
63.40
53.08
52.83
58.08
64.39
69.41
72.78
75.48
77.80
79.13
78.97
77.34
75.15
73.21
71.90
71.26
71.26
71.15
69.70
66.05
59.28
50.37
40.29
29.82
19.52
9.85
0.67
-8.58
-16.13
-22.87
-28.65
-33.11
-35.92
-36.97
-36.35
-34.55
-32.27
-30.10
-28.58
-27.44
-26.36
-25.06
-23.41
-21.38
-19.13
-16.89
-14.81
-13.22
-11.94
-10.82
-9.73
-8.66
-7.58
-6.51
-5.45
-4.41
-3.55
-2.79
-2.11
-1.44
-0.81
-0.22
0.36
0.91
1.44
1.82
2.05
2.14
2.11
2.00
1.83
1.66
1.53
1.40
1.21
0.88
0.06
-0.97
-2.12
-3.31
-4.42
-5.45
-6.42
-7.44
-8.62
-10.08
-11.75
-13.58
-15.42
-17.03
-18.36
-19.54
-20.83
-22.55
-24.98
-28.05
-31.49
-34.82
-37.44
-39.06
-39.76
-39.99
-40.27
-40.91
-41.68
-41.80
-40.63
-36.93
-30.28
-21.35
-11.59
-2.94
3.01
5.44
4.54
1.24
-3.61
-9.56
-17.09
-27.15
-40.72
-58.33
-79.91
-103.90
-129.40
-154.40
-175.27
-187.29
-186.04
-169.48
-139.34
-100.86
-61.64
-26.27
3.03
27.08
48.41
69.21
89.93
109.37
126.18
139.08
149.55
159.38
169.60
179.51
187.04
190.04
187.20
179.34
168.80
158.83
151.96
149.64
152.06
158.13
165.24
169.46
166.80
153.33
128.42
95.07
59.47
28.75
8.11
-1.18
-1.71
2.08
6.22
9.01
10.62
11.92
13.06
12.97
10.08
3.36
-6.79
-18.74
-30.30
-39.61
-46.06
-50.15
-53.01
-55.80
-59.11
-62.76
-66.08
-68.21
-68.59
-67.30
-64.86
-61.98
-59.20
-56.69
-54.30
-51.69
-48.52
-44.64
-40.24
-35.63
-31.11
-26.85
-22.95
-19.63
-17.06
-15.44
-14.91
-15.39
-16.46
-17.46
-17.70
-16.87
-15.42
-14.04
-13.68
-15.12
-18.68
-24.05
-30.55
-37.50
-44.63
-52.65
-62.15
-73.83
-88.56
-107.50
-131.63
-161.02
-193.66
-225.14
-249.64
-260.34
-252.76
-227.22
-189.19
-147.57
-111.45
-87.29
-75.18
-74.53
-81.58
-91.84
-101.82
-109.72
-115.00
-117.22
-115.49
-108.45
-94.98
-71.92
-36.07
14.47
79.49
156.46
241.66
331.42
422.75
502.16
557.27
580.85
574.56
547.58
511.24
474.59
441.88
411.99
379.46
339.32
289.16
230.96
170.66
115.83
73.04
44.80
28.45
17.89
8.42
-0.87
-9.20
-15.74
-21.36
-28.24
-39.45
-57.64
-83.57
-114.63
-146.00
-172.41
-191.68
-204.69
-213.60
-221.47
-231.50
-246.49
-268.39
-298.25
-336.65
-377.63
-416.21
-445.83
-460.18
-455.80
-433.96
-400.48
-363.39
-318.67
-269.42
-221.64
-179.88
-146.31
-121.19
-103.88
-92.88
-87.61
-81.78
-70.93
-52.07
-23.43
15.15
62.72
118.79
178.83
236.83
287.29
324.72
346.72
354.17
349.53
335.39
314.01
287.38
258.11
229.44
202.99
179.70
159.82
142.94
128.11
114.35
100.94
88.05
76.53
66.61
58.18
50.94
44.44
38.37
32.63
27.48
23.46
21.06
19.96
19.44
18.57
16.80
14.17
11.46
9.93
10.68
14.02
19.14
24.50
28.38
29.68
28.43
25.75
23.79
24.81
30.35
40.55
53.40
64.67
68.82
61.69
39.87
4.43
-39.52
-84.12
-120.98
-143.61
-149.22
-138.69
-117.29
-91.83
-68.16
-49.87
-37.94
-31.48
-28.81
-28.14
-28.22
-27.89
-25.80
-19.80
-7.89
11.14
36.98
67.43
98.58
125.21
141.64
143.69
130.21
104.07
71.27
38.67
11.43
-8.73
-23.40
-35.84
-47.89
-60.48
-72.42
-81.83
-87.98
-91.56
-94.04
-96.66
-99.66
-102.32
-103.80
-103.43
-101.33
-98.59
-96.33
-95.28
-95.20
-95.18
-93.97
-90.74
-86.37
-81.40
-78.12
-78.54
-82.87
-88.32
-89.59
-80.94
-58.85
-23.68
20.45
66.56
107.69
138.45
155.76
158.66
148.19
127.30
100.45
74.55
55.33
45.78
45.21
49.58
53.71
53.30
45.98
31.51
11.50
-11.91
-36.39
-59.79
-80.54
-98.07
-112.41
-124.66
-136.70
-150.40
-166.98
-185.51
-202.54
-212.71
-210.53
-192.28
-159.21
-117.18
-74.39
-38.42
-12.57
4.38
16.49
27.88
41.53
57.03
72.34
86.11
98.48
112.13
130.01
153.51
175.45
192.53
201.91
202.50
195.47
183.51
170.93
161.30
156.11
154.67
156.12
158.24
157.79
153.81
139.47
110.51
67.01
14.43
-37.52
-77.62
-99.12
-102.14
-92.99
-82.06
-77.38
-81.28
-90.58
-100.16
-106.34
-109.22
-111.61
-116.13
-123.52
-131.44
-136.64
-136.88
-132.10
-123.98
-114.57
-105.34
-96.24
-86.19
-73.00
-54.99
-31.94
-6.88
17.10
37.31
51.80
59.93
62.21
60.24
55.69
49.56
44.12
37.83
29.61
18.88
5.72
-9.28
-25.15
-41.01
-56.35
-71.27
-85.77
-99.73
-113.12
-125.86
-137.81
-148.87
-159.04
-168.47
-177.53
-186.04
-193.66
-200.08
-204.97
-207.90
-208.22
-204.93
-196.29
-185.14
-172.23
-157.86
-142.25
-125.65
-108.36
-90.66
-72.86
-55.29
-38.36
-21.91
-6.05
8.83
22.04
32.75
40.15
43.71
43.28
39.15
32.50
24.55
16.33
8.50
1.38
-4.95
-10.31
-14.25
-16.07
-14.62
-9.07
0.79
14.44
30.80
48.66
67.23
86.52
107.25
130.73
157.92
188.94
222.79
257.81
292.18
324.70
355.18
384.38
413.78
445.19
480.49
521.20
567.58
617.51
665.77
704.55
725.43
722.21
693.32
642.58
577.79
507.80
439.65
376.98
320.34
268.57
220.32
174.75
131.42
89.80
49.12
8.70
-31.49
-70.66
-107.50
-140.75
-169.83
-195.09
-217.47
-237.83
-256.53
-273.27
-287.38
-298.43
-306.76
-313.74
-321.75
-333.92
-353.41
-382.10
-419.19
-460.07
-496.67
-519.43
-520.47
-496.42
-449.74
-387.52
-318.53
-250.07
-185.90
-126.24
-69.21
-12.81
43.72
99.60
152.93
201.51
243.37
277.18
302.36
319.12
328.22
330.65
327.55
320.19
310.03
298.67
287.30
275.95
262.91
245.05
219.07
183.26
138.77
89.60
41.23
-1.52
-36.42
-64.40
-88.73
-113.19
-140.35
-170.66
-202.52
-233.27
-260.40
-282.49
-299.61
-312.99
-324.35
-335.09
-345.67
-355.31
-362.25
-364.29
-359.65
-347.30
-327.09
-299.67
-266.60
-230.09
-192.55
-156.06
-121.49
-88.73
-56.47
-22.83
13.63
52.82
92.66
130.04
161.56
185.11
199.26
203.99
200.79
192.43
182.05
172.40
165.88
163.30
164.53
167.00
167.56
164.38
157.80
149.49
140.63
131.74
121.05
106.52
84.46
52.26
10.01
-39.33
-91.50
-143.29
-191.92
-236.61
-262.92
-258.45
-221.30
-162.84
-98.96
-40.64
1.87
32.44
54.32
69.45
76.23
71.40
53.44
22.08
-17.55
-58.72
-93.77
-118.80
-132.47
-137.19
-136.70
-134.32
-132.13
-131.19
-132.80
-137.07
-143.24
-147.61
-145.21
-131.29
-103.73
-64.89
-21.35
17.72
44.98
57.33
57.30
50.32
41.98
35.80
32.63
31.25
28.81
22.76
11.01
-6.90
-29.05
-50.69
-65.45
-68.06
-56.65
-34.23
-7.24
17.51
35.50
45.84
50.23
50.83
48.31
41.91
30.51
14.41
-3.64
-19.59
-29.79
-32.64
-29.56
-24.23
-20.67
-21.20
-27.77
-38.16
-48.24
-53.92
-52.64
-43.94
-29.19
-10.96
7.33
21.61
27.95
22.85
4.87
-24.09
-58.54
-90.90
-114.18
-124.66
-122.81
-111.98
-96.34
-78.52
-58.82
-36.15
-9.79
19.40
49.12
76.94
101.67
123.63
143.77
162.21
177.18
185.16
182.43
166.95
139.85
105.62
70.77
41.79
23.06
15.50
16.43
20.54
21.74
15.37
0.07
-21.32
-42.55
-56.43
-58.19
-48.39
-33.75
-25.17
-33.35
-63.88
-114.17
-173.90
-228.86
-266.29
-279.21
-267.80
-237.65
-196.33
-150.27
-103.38
-57.57
-14.23
24.75
57.19
81.90
99.89
114.63
130.80
151.96
178.43
206.62
230.32
243.25
242.01
227.61
205.13
181.54
162.84
151.92
148.11
148.25
148.55
146.20
139.89
129.65
116.22
100.79
84.87
70.15
58.34
50.80
48.49
52.10
62.16
78.69
100.69
125.45
148.81
166.25
174.71
173.97
166.81
157.79
151.33
150.15
154.64
162.97
171.89
177.11
173.96
158.14
127.07
81.06
24.04
-37.17
-94.54
-141.14
-173.07
-190.49
-197.29
-199.75
-204.35
-215.31
-232.96
-253.29
-269.38
-274.14
-263.12
-236.21
-197.28
-152.44
-107.56
-66.74
-31.95
-3.88
17.00
30.21
35.68
34.50
29.28
23.60
20.87
23.07
30.15
40.20
50.58
59.00
64.48
67.48
69.39
71.62
74.75
78.15
80.17
78.76
72.36
60.32
43.03
21.60
-2.55
-27.97
-53.17
-76.60
-96.54
-111.24
-119.26
-119.77
-112.71
-98.82
-79.52
-56.63
-32.31
-8.73
12.23
29.31
42.07
50.93
56.85
60.89
63.81
65.91
67.03
66.87
65.21
62.00
57.36
51.38
44.08
35.47
25.77
15.57
5.85
-2.25
-7.91
-10.93
-11.81
-11.45
-10.70
-9.89
-8.84
-6.99
-3.80
0.90
6.82
13.32
19.67
25.33
30.10
34.19
38.03
42.08
46.54
51.30
55.88
59.71
62.33
63.60
63.82
63.55
63.44
64.02
65.42
67.25
68.52
67.68
62.84
52.28
35.00
11.45
-16.27
-44.66
-69.73
-88.18
-98.33
-100.39
-95.94
-87.09
-75.69
-63.13
-50.61
-39.53
-31.31
-26.74
-25.37
-25.46
-24.98
-23.06
-20.88
-21.35
-27.58
-40.89
-59.82
-80.47
-98.30
-110.08
-114.90
-113.90
-109.09
-102.07
-93.57
-83.69
-72.65
-61.20
-50.62
-42.16
-36.47
-33.37
-31.94
-31.02
-29.69
-27.63
-25.11
-22.76
-21.18
-20.58
-20.69
-20.86
-20.32
-18.50
-15.20
-10.67
-5.45
-0.17
4.68
8.99
12.94
16.85
20.90
25.02
28.82
31.85
33.84
34.81
35.00
34.70
33.96
32.54
30.09
26.37
21.51
16.01
10.55
5.72
1.87
-0.95
-2.86
-3.94
-4.17
-3.41
-1.56
1.32
4.96
9.00
13.11
17.24
21.53
26.14
31.07
35.94
40.01
42.39
42.36
39.59
34.36
27.42
19.88
12.89
7.42
4.01
2.65
2.82
3.69
4.33
4.07
2.82
1.26
0.80
3.23
10.10
21.98
37.89
55.23
70.35
79.62
80.54
72.64
57.77
39.72
23.14
12.14
8.93
12.97
21.09
28.53
30.74
25.18
11.98
-6.42
-26.71
-46.38
-64.36
-80.84
-96.11
-109.69
-120.38
-127.10
-129.98
-130.78
-132.16
-136.26
-143.45
-152.06
-159.25
-162.48
-160.64
-154.23
-145.00
-135.15
-126.81
-121.92
-122.10
-128.55
-141.55
-159.88
-180.42
-198.48
-208.64
-206.20
-188.80
-157.37
-116.14
-71.42
-29.09
7.76
40.14
72.46
109.94
155.42
207.41
260.25
306.47
339.77
357.27
359.87
350.97
334.41
312.92
287.93
260.26
231.19
202.88
177.80
157.62
142.42
130.53
119.34
106.68
91.74
75.45
59.89
47.16
38.53
34.04
32.63
32.62
32.27
30.01
24.74
15.95
3.87
-10.56
-26.01
-41.23
-55.48
-68.61
-80.79
-92.00
-101.84
-109.68
-114.97
-117.73
-118.64
-118.75
-118.87
-119.17
-118.92
-116.67
-110.88
-100.49
-85.49
-67.16
-47.83
-30.18
-16.49
-7.78
-3.55
-2.15
-1.41
0.43
4.12
9.35
14.95
19.51
21.95
21.94
19.84
16.53
12.98
9.89
7.56
5.74
3.87
1.20
-2.90
-8.87
-16.85
-26.84
-38.74
-52.36
-67.26
-82.64
-97.40
-110.30
-120.29
-126.54
-128.53
-125.91
-118.39
-105.87
-88.65
-67.81
-45.22
-23.33
-4.41
10.10
19.73
25.08
27.35
27.93
27.91
28.01
28.32
28.68
28.80
28.16
26.38
23.49
20.17
17.63
17.43
20.50
27.09
36.43
46.69
55.99
63.35
69.27
75.64
85.16
99.93
119.06
139.00
153.70
157.24
146.56
122.56
88.89
52.35
15.70
-19.47
-51.73
-79.90
-102.81
-119.78
-129.72
-133.39
-133.21
-132.71
-134.55
-139.52
-146.34
-152.14
-153.88
-149.86
-140.66
-128.43
-115.87
-104.28
-93.21
-81.15
-66.52
-48.77
-28.71
-8.12
11.34
28.86
44.89
60.42
76.08
91.56
105.52
115.86
120.33
117.18
105.58
85.93
59.81
29.66
-1.62
-31.10
-56.31
-75.56
-87.84
-92.72
-90.13
-80.47
-64.83
-45.12
-23.88
-3.72
13.27
26.12
35.13
41.39
46.13
50.04
53.08
54.75
54.75
53.49
52.16
52.41
55.55
61.92
70.65
80.03
88.08
93.19
94.36
91.07
82.98
69.66
50.78
26.46
-2.17
-32.74
-61.86
-85.84
-101.63
-107.72
-104.51
-94.04
-79.24
-62.88
-46.84
-31.85
-17.80
-4.34
8.55
20.29
29.97
36.79
40.60
42.14
42.79
44.05
46.94
51.66
57.61
63.81
69.36
73.76
76.97
79.31
81.24
83.16
85.38
88.06
91.25
94.84
98.60
102.23
105.35
107.58
108.58
107.99
105.56
101.21
95.03
87.29
78.40
68.81
58.94
49.09
39.46
30.12
21.07
12.29
3.79
-4.35
-12.00
-18.97
-25.11
-30.24
-34.29
-37.25
-39.34
-41.00
-42.85
-45.48
-49.23
-53.98
-59.15
-63.88
-67.31
-68.83
-68.20
-65.47
-60.90
-54.84
-47.69
-39.90
-31.97
-24.38
-17.49
-11.47
-6.16
-1.04
4.79
12.49
23.17
37.49
55.27
75.50
96.56
116.82
135.08
150.79
163.81
173.69
179.14
177.83
166.92
144.12
108.76
62.26
7.82
-50.41
-108.37
-162.70
-210.85
-250.80
-280.90
-299.78
-306.62
-301.44
-285.00
-258.75
-224.69
-185.27
-143.28
-101.56
-62.50
-27.64
2.26
26.84
45.61
57.75
62.50
59.79
50.83
37.98
23.97
11.04
0.28
-8.16
-14.54
-18.83
-20.60
-19.34
-14.94
-8.02
0.16
8.11
14.60
19.06
21.67
23.10
24.18
25.45
27.02
28.57
29.69
30.07
29.66
28.68
27.36
25.79
23.84
21.22
17.62
12.95
7.40
1.46
-4.25
-9.26
-13.51
-17.40
-21.69
-27.05
-33.60
-40.76
-47.32
-51.92
-53.50
-51.49
-45.78
-36.47
-23.87
-8.64
7.94
23.94
37.22
46.09
49.82
48.89
44.53
38.16
30.88
23.34
15.95
9.06
3.03
-1.90
-5.78
-8.96
-11.87
-14.83
-17.87
-20.80
-23.35
-25.29
-26.51
-27.01
-26.87
-26.25
-25.36
-24.39
-23.41
-22.34
-20.94
-18.92
-16.09
-12.48
-8.31
-3.89
0.46
4.51
8.14
11.26
13.83
15.76
16.94
17.27
16.82
15.93
15.26
15.65
17.74
21.72
27.20
33.41
39.44
44.59
48.42
50.62
50.90
48.93
44.45
37.49
28.51
18.32
7.86
-2.04
-10.91
-18.61
-25.27
-31.21
-36.75
-42.16
-47.62
-53.14
-58.63
-63.98
-69.13
-74.05
-78.70
-82.86
-86.09
-87.80
-87.42
-84.59
-79.28
-71.74
-62.32
-51.27
-38.60
-24.25
-8.24
9.10
27.08
44.80
61.52
76.83
90.71
103.39
114.92
125.03
132.86
137.17
136.62
130.08
117.04
97.78
73.50
46.22
18.35
-7.82
-30.87
-50.65
-68.22
-85.45
-104.20
-125.53
-149.40
-174.68
-199.65
-222.64
-242.40
-258.29
-270.11
-277.66
-280.41
-277.19
-266.28
-245.95
-215.19
-174.48
-126.11
-73.79
-21.68
26.67
69.05
104.60
133.32
155.43
171.09
180.52
184.37
183.93
181.00
177.18
173.29
169.04
163.24
154.56
142.18
126.33
108.18
89.42
71.64
55.94
42.69
31.68
22.42
14.40
7.29
0.96
-4.64
-9.52
-13.80
-17.60
-20.88
-23.27
-23.99
-22.09
-16.86
-8.20
3.09
15.55
27.44
37.27
44.12
47.68
48.08
45.61
40.63
33.54
24.88
15.43
6.11
-2.23
-8.93
-13.69
-16.55
-17.78
-17.72
-16.65
-14.74
-12.08
-8.80
-5.13
-1.41
1.94
4.60
6.45
7.56
8.13
8.33
8.21
7.73
6.87
5.72
4.48
3.37
2.52
1.86
1.21
0.30
-1.02
-2.77
-4.88
-7.26
-9.83
-12.52
-15.27
-18.02
-20.77
-23.59
-26.67
-30.22
-34.38
-39.07
-43.86
-47.97
-50.37
-50.06
-46.36
-39.22
-29.31
-17.84
-6.23
4.34
13.20
20.21
25.61
29.76
32.91
35.16
36.54
37.07
36.89
36.20
35.30
34.43
33.78
33.39
33.21
33.15
33.10
32.97
32.76
32.43
31.93
31.12
29.87
28.08
25.79
23.15
20.38
17.69
15.25
13.15
11.40
9.97
8.79
7.70
6.49
4.94
2.90
0.36
-2.54
-5.60
-8.58
-11.37
-13.95
-16.47
-19.12
-22.20
-25.96
-30.51
-35.63
-40.66
-44.51
-45.94
-43.91
-38.00
-28.64
-17.03
-4.73
6.76
16.40
23.79
28.98
32.34
34.28
35.18
35.39
35.22
34.93
34.72
34.64
34.69
34.77
34.79
34.66
34.36
33.91
33.38
32.82
32.28
31.68
30.90
29.70
27.87
25.34
22.17
18.58
14.79
10.98
7.21
3.53
0.03
-3.19
-6.01
-8.42
-10.51
-12.46
-14.38
-16.28
-18.05
-19.55
-20.69
-21.52
-22.23
-23.06
-24.21
-25.85
-28.06
-30.85
-33.99
-36.96
-38.93
-38.93
-36.21
-30.56
-22.46
-13.02
-3.58
4.71
11.17
15.75
18.83
20.93
22.52
23.84
24.96
25.83
26.44
26.82
27.10
27.40
27.82
28.38
28.95
29.40
29.56
29.38
28.87
28.13
27.23
26.14
24.76
22.96
20.73
18.15
15.45
12.81
10.32
7.92
5.46
2.87
0.15
-2.57
-5.17
-7.65
-10.08
-12.61
-15.27
-17.96
-20.47
-22.56
-24.11
-25.20
-26.09
-27.14
-28.71
-31.04
-34.20
-37.91
-41.53
-44.11
-44.64
-42.32
-36.92
-28.93
-19.38
-9.58
-0.65
6.71
12.34
16.49
19.58
21.99
23.90
25.38
26.43
27.10
27.45
27.59
27.56
27.33
26.82
25.98
24.92
23.83
22.98
22.48
22.27
22.06
21.51
20.40
18.74
16.75
14.68
12.71
10.76
8.69
6.34
3.71
1.03
-1.41
-3.39
-4.87
-6.09
-7.38
-9.00
-11.02
-13.32
-15.67
-17.86
-19.81
-21.55
-23.22
-24.95
-26.88
-29.17
-31.89
-35.00
-38.14
-40.67
-41.70
-40.39
-36.27
-29.47
-20.76
-11.32
-2.34
5.29
11.18
15.36
18.11
19.73
20.52
20.67
20.42
20.04
19.78
19.79
20.07
20.43
20.66
20.59
20.20
19.62
19.06
18.64
18.38
18.18
17.91
17.44
16.70
15.64
14.21
12.35
10.05
7.41
4.68
2.12
-0.05
-1.81
-3.32
-4.85
-6.58
-8.59
-10.74
-12.86
-14.78
-16.47
-18.02
-19.56
-21.25
-23.18
-25.44
-28.07
-31.01
-33.95
-36.28
-37.17
-35.82
-31.81
-25.32
-17.15
-8.48
-0.47
6.11
11.02
14.42
16.70
18.20
19.15
19.67
19.87
19.87
19.82
19.85
19.98
20.18
20.34
20.37
20.19
19.81
19.27
18.60
17.84
16.95
15.94
14.79
13.49
12.07
10.52
8.83
6.92
4.78
2.46
0.10
-2.08
-3.90
-5.28
-6.33
-7.29
-8.42
-9.89
-11.73
-13.84
-16.04
-18.16
-20.07
-21.70
-23.09
-24.33
-25.61
-27.19
-29.32
-32.10
-35.42
-38.74
-41.22
-41.88
-39.91
-35.01
-27.52
-18.40
-8.86
-0.07
7.19
12.67
16.49
18.95
20.38
21.02
21.07
20.76
20.36
20.13
20.24
20.68
21.31
21.91
22.29
22.38
22.20
21.85
21.43
20.95
20.40
19.67
18.70
17.44
15.89
14.16
12.39
10.72
9.26
7.99
6.77
5.40
3.68
1.55
-0.82
-3.14
-5.09
-6.53
-7.59
-8.60
-9.93
-11.82
-14.25
-16.95
-19.57
-21.85
-23.69
-25.14
-26.39
-27.63
-29.10
-31.01
-33.53
-36.62
-39.84
-42.37
-43.12
-41.14
-36.03
-28.13
-18.44
-8.33
0.95
8.55
14.21
18.04
20.41
21.70
22.22
22.22
21.93
21.57
21.28
21.17
21.18
21.21
21.13
20.83
20.34
19.78
19.34
19.16
19.23
19.36
19.23
18.54
17.12
15.03
12.52
9.92
7.57
5.63
4.10
2.81
1.53
0.07
-1.65
-3.59
-5.59
-7.51
-9.29
-10.99
-12.83
-15.03
-17.74
-20.93
-24.41
-27.92
-31.19
-34.11
-36.70
-39.15
-41.72
-44.70
-48.36
-52.80
-57.87
-63.05
-67.50
-70.18
-70.15
-67.00
-60.95
-52.94
-44.28
-36.20
-29.53
-24.40
-20.44
-17.07
-13.84
-10.64
-7.56
-4.72
-2.04
0.71
3.78
7.11
10.33
12.85
14.27
14.68
14.77
15.59
18.14
23.01
30.19
39.17
49.25
59.72
70.03
79.76
88.57
96.15
102.27
106.76
109.54
110.54
109.63
106.57
101.11
93.18
83.13
71.78
60.32
49.98
41.64
35.57
31.44
28.50
25.90
23.00
19.42
15.09
10.06
4.41
-1.78
-8.49
-15.65
-23.11
-30.67
-38.04
-44.91
-51.01
-56.15
-60.20
-63.17
-65.07
-65.98
-66.01
-65.34
-64.24
-62.89
-61.44
-59.92
-58.29
-56.53
-54.67
-52.77
-50.86
-48.88
-46.67
-44.12
-41.24
-38.20
-35.26
-32.65
-30.41
-28.38
-26.26
-23.64
-20.10
-15.28
-8.95
-1.05
8.16
18.12
28.01
36.99
44.38
49.83
53.28
54.95
55.12
54.09
52.16
49.68
47.02
44.56
42.58
41.17
40.15
39.13
37.65
35.27
31.72
26.95
21.15
14.71
8.13
1.94
-3.45
-7.84
-11.33
-14.23
-16.95
-19.88
-23.15
-26.68
-30.14
-33.13
-35.36
-36.70
-37.25
-37.23
-36.88
-36.36
-35.70
-34.86
-33.76
-32.33
-30.40
-27.70
-23.95
-18.82
-12.23
-4.42
4.05
12.45
20.13
26.80
32.59
37.87
43.14
48.62
54.27
59.75
64.66
68.67
71.66
73.64
74.67
74.83
74.11
72.50
70.08
66.94
63.27
59.20
54.90
50.47
46.05
41.72
37.56
33.61
29.85
26.28
22.91
19.76
16.89
14.31
11.94
9.69
7.47
5.23
3.04
1.04
-0.66
-1.99
-2.99
-3.77
-4.51
-5.38
-6.57
-8.21
-10.38
-13.04
-16.05
-19.18
-22.17
-24.80
-26.88
-28.27
-28.86
-28.60
-27.58
-26.08
-24.59
-23.69
-23.89
-25.44
-28.19
-31.70
-35.33
-38.51
-40.89
-42.38
-43.12
-43.31
-43.15
-42.66
-41.82
-40.56
-38.94
-37.10
-35.23
-33.50
-31.95
-30.54
-29.17
-27.82
-26.52
-25.39
-24.52
-23.92
-23.44
-22.92
-22.18
-21.16
-19.97
-18.72
-17.53
-16.43
-15.37
-14.24
-13.01
-11.63
-10.17
-8.72
-7.37
-6.24
-5.40
-4.87
-4.60
-4.48
-4.35
-4.11
-3.74
-3.26
-2.72
-2.16
-1.59
-1.03
-0.51
-0.09
0.26
0.59
1.08
1.81
2.80
3.88
4.78
5.27
5.26
4.84
4.25
3.73
3.37
3.10
2.73
2.06
0.97
-0.52
-2.31
-4.23
-6.17
-8.08
-9.96
-11.85
-13.80
-15.83
-17.92
-20.04
-22.10
-24.05
-25.85
-27.50
-29.00
-30.38
-31.65
-32.79
-33.69
-34.25
-34.26
-33.57
-32.06
-29.69
-26.61
-23.03
-19.19
-15.27
-11.37
-7.48
-3.57
0.37
4.31
8.18
11.90
15.37
18.45
20.97
22.82
23.91
24.32
24.23
23.89
23.51
23.18
22.85
22.42
21.76
20.83
19.62
18.24
16.73
15.16
13.52
11.79
9.99
8.17
6.45
4.92
3.65
2.59
1.64
0.67
-0.42
-1.62
-2.87
-4.06
-5.09
-5.88
-6.45
-6.79
-6.95
-6.94
-6.77
-6.43
-5.92
-5.22
-4.33
-3.30
-2.16
-1.02
0.00
0.82
1.37
1.69
1.91
2.21
2.76
3.68
4.96
6.49
8.13
9.78
11.36
12.89
14.35
15.72
16.88
17.73
18.16
18.20
17.90
17.36
16.63
15.73
14.65
13.39
12.01
10.59
9.19
7.77
6.22
4.43
2.36
0.14
-2.02
-3.95
-5.54
-6.81
-7.79
-8.51
-8.92
-8.98
-8.68
-8.14
-7.53
-7.03
-6.76
-6.71
-6.84
-7.07
-7.40
-7.80
-8.27
-8.83
-9.42
-9.97
-10.33
-10.33
-9.82
-8.76
-7.19
-5.29
-3.31
-1.41
0.31
1.86
3.30
4.70
6.04
7.31
8.48
9.54
10.54
11.51
12.50
13.52
14.56
15.56
16.42
17.03
17.32
17.32
17.09
16.77
16.40
15.95
15.28
14.19
12.55
10.40
7.91
5.40
3.20
1.63
0.80
0.76
1.38
2.46
3.80
5.22
6.66
8.16
9.96
12.29
15.43
19.46
24.27
29.47
34.48
38.72
41.75
43.39
43.75
43.13
41.83
40.12
38.11
35.83
33.21
30.19
26.69
22.69
18.19
13.20
7.79
2.09
-3.77
-9.64
-15.36
-20.79
-25.80
-30.27
-34.10
-37.20
-39.54
-41.16
-42.24
-42.99
-43.68
-44.42
-45.12
-45.53
-45.36
-44.49
-43.08
-41.46
-40.00
-38.86
-37.96
-36.99
-35.67
-33.88
-31.69
-29.30
-26.87
-24.44
-21.97
-19.43
-16.82
-14.26
-11.89
-9.78
-7.92
-6.17
-4.40
-2.52
-0.52
1.49
3.36
4.94
6.15
6.98
7.48
7.69
7.64
7.37
6.91
6.36
5.85
5.49
5.35
5.42
5.59
5.70
5.61
5.24
4.58
3.71
2.74
1.80
1.01
0.45
0.12
-0.05
-0.22
-0.59
-1.30
-2.42
-3.82
-5.32
-6.64
-7.58
-8.07
-8.17
-8.02
-7.76
-7.51
-7.33
-7.27
-7.36
-7.61
-7.98
-8.36
-8.59
-8.51
-8.00
-7.08
-5.83
-4.39
-2.87
-1.37
0.07
1.40
2.53
3.41
3.95
4.14
4.01
3.65
3.15
2.59
2.01
1.47
1.00
0.67
0.54
0.61
0.81
0.97
0.94
0.63
0.05
-0.64
-1.29
-1.77
-2.05
-2.19
-2.30
-2.45
-2.65
-2.86
-3.00
-3.04
-3.03
-3.05
-3.18
-3.44
-3.78
-4.13
-4.40
-4.56
-4.67
-4.79
-4.93
-4.98
-4.78
-4.21
-3.28
-2.11
-0.94
0.08
0.93
1.71
2.54
3.44
4.23
4.66
4.57
4.01
3.27
2.69
2.53
2.75
3.12
3.34
3.24
2.89
2.51
2.29
2.26
2.28
2.20
1.94
1.58
1.27
1.09
1.00
0.85
0.52
-0.00
-0.60
-1.14
-1.53
-1.82
-2.12
-2.50
-2.98
-3.49
-3.93
-4.28
-4.60
-4.98
-5.50
-6.15
-6.77
-7.13
-6.99
-6.24
-4.92
-3.24
-1.49
0.12
1.48
2.61
3.56
4.32
4.85
5.09
5.05
4.81
4.50
4.24
4.07
3.95
3.78
3.57
3.39
3.34
3.44
3.61
3.71
3.60
3.24
2.70
2.15
1.67
1.30
0.99
0.68
0.36
0.11
0.04
0.19
0.49
0.76
0.87
0.75
0.50
0.29
0.24
0.30
0.28
-0.07
-0.88
-2.05
-3.35
-4.49
-5.33
-5.90
-6.35
-6.76
-7.07
-7.08
-6.64
-5.76
-4.62
-3.50
-2.62
-1.99
-1.49
-0.93
-0.16
0.82
1.94
3.08
4.17
5.14
5.95
6.56
6.94
7.15
7.36
7.71
8.32
9.16
10.05
10.74
11.01
10.80
10.26
9.68
9.33
9.36
9.70
10.14
10.42
10.36
9.93
9.16
8.12
6.85
5.34
3.55
1.50
-0.71
-2.96
-5.20
-7.46
-9.89
-12.65
-15.83
-19.35
-22.95
-26.28
-28.99
-30.79
-31.56
-31.32
-30.18
-28.30
-25.83
-22.94
-19.76
-16.44
-13.09
-9.71
-6.21
-2.37
1.98
6.92
12.31
17.81
22.99
27.46
31.05
33.81
36.08
38.26
40.72
43.64
46.88
50.04
52.46
53.44
52.43
49.21
44.03
37.49
30.38
23.54
17.59
12.94
9.79
8.17
8.04
9.28
11.66
14.77
18.06
20.89
22.59
22.71
21.06
17.80
13.44
8.62
3.95
-0.17
-3.58
-6.33
-8.51
-10.15
-11.26
-11.85
-12.08
-12.27
-12.75
-13.79
-15.38
-17.26
-19.04
-20.36
-21.07
-21.20
-20.93
-20.47
-19.97
-19.50
-19.12
-18.93
-19.02
-19.43
-20.07
-20.73
-21.17
-21.18
-20.76
-20.04
-19.26
-18.61
-18.16
-17.85
-17.58
-17.30
-17.09
-17.10
-17.47
-18.27
-19.42
-20.77
-22.04
-22.99
-23.38
-23.05
-21.97
-20.20
-17.95
-15.48
-13.10
-11.03
-9.37
-8.06
-6.92
-5.75
-4.41
-2.86
-1.16
0.55
2.15
3.58
4.82
5.91
6.89
7.82
8.73
9.63
10.48
11.20
11.68
11.83
11.68
11.34
11.00
10.79
10.75
10.78
10.70
10.38
9.82
9.10
8.38
7.81
7.42
7.14
6.87
6.47
5.90
5.24
4.63
4.26
4.23
4.52
5.01
5.53
5.98
6.39
6.88
7.58
8.53
9.65
10.77
11.79
12.68
13.55
14.54
15.73
17.10
18.55
19.97
21.33
22.70
24.14
25.67
27.24
28.67
29.79
30.46
30.67
30.44
29.89
29.12
28.14
26.77
24.62
21.22
16.20
9.53
1.62
-6.76
-14.77
-21.83
-27.84
-33.21
-38.49
-44.06
-49.90
-55.62
-60.69
-64.72
-67.57
-69.35
-70.33
-70.72
-70.77
-70.67
-70.54
-70.23
-69.08
-65.87
-59.01
-47.13
-29.82
-8.07
15.59
37.79
55.18
65.46
67.99
63.74
54.79
43.54
32.08
21.76
13.31
6.96
2.63
0.17
-0.80
-0.81
-0.53
-0.60
-1.44
-3.05
-5.10
-7.06
-8.44
-9.00
-8.85
-8.31
-7.80
-7.53
-7.39
-6.95
-5.56
-2.59
2.31
9.03
16.94
24.94
31.82
36.52
38.42
37.43
33.91
28.52
22.00
15.01
8.07
1.56
-4.19
-9.04
-12.90
-15.90
-18.28
-20.36
-22.42
-24.64
-26.99
-29.25
-31.09
-32.22
-32.44
-31.76
-30.33
-28.37
-26.10
-23.78
-21.69
-20.11
-19.25
-19.10
-19.41
-19.67
-19.29
-17.90
-15.40
-12.10
-8.43
-4.81
-1.46
1.58
4.43
7.21
10.02
12.93
16.04
19.42
23.08
26.91
30.68
34.08
36.94
39.20
41.03
42.68
44.38
46.20
48.06
49.69
50.79
51.09
50.45
48.89
46.59
43.79
40.75
37.62
34.40
31.00
27.30
23.25
18.97
14.66
10.58
6.95
3.81
1.08
-1.48
-4.13
-7.05
-10.33
-13.88
-17.54
-21.02
-24.07
-26.45
-27.95
-28.48
-28.01
-26.61
-24.49
-21.95
-19.36
-17.02
-15.08
-13.53
-12.23
-11.03
-9.78
-8.48
-7.20
-6.06
-5.15
-4.50
-4.13
-4.01
-4.12
-4.37
-4.67
-4.90
-4.97
-4.84
-4.55
-4.15
-3.73
-3.35
-3.02
-2.71
-2.37
-1.98
-1.56
-1.18
-0.84
-0.54
-0.17
0.35
1.07
1.97
2.94
3.82
4.51
4.97
5.22
5.31
5.25
5.03
4.68
4.24
3.79
3.44
3.32
3.46
3.94
4.79
6.04
7.70
9.70
11.89
14.07
16.00
17.49
18.47
18.95
19.01
18.87
18.75
18.84
19.24
19.88
20.56
21.02
21.11
20.76
20.11
19.32
18.52
17.73
16.94
16.08
15.01
13.50
11.15
7.54
2.35
-4.36
-12.07
-19.91
-26.96
-32.59
-36.69
-39.51
-41.47
-42.79
-43.32
-42.72
-40.71
-37.38
-33.29
-29.24
-25.92
-23.69
-22.45
-21.83
-21.47
-21.19
-21.05
-21.16
-21.52
-21.97
-22.27
-22.20
-21.74
-21.02
-20.35
-20.04
-20.41
-21.61
-23.62
-26.23
-29.01
-31.40
-32.86
-32.90
-31.23
-27.80
-22.72
-16.35
-9.21
-1.88
5.00
10.90
15.47
18.59
20.37
21.11
21.15
20.85
20.54
20.38
20.38
20.37
20.14
19.53
18.52
17.26
15.97
14.86
14.01
13.40
12.92
12.46
11.92
11.27
10.47
9.50
8.37
7.14
5.89
4.67
3.52
2.40
1.34
0.35
-0.48
-1.07
-1.43
-1.61
-1.73
-1.89
-2.16
-2.58
-3.19
-4.05
-5.18
-6.58
-8.10
-9.55
-10.77
-11.74
-12.59
-13.54
-14.82
-16.50
-18.50
-20.57
-22.43
-23.77
-24.48
-24.56
-24.16
-23.52
-22.77
-22.00
-21.19
-20.38
-19.74
-19.60
-20.36
-22.36
-25.69
-30.16
-35.42
-41.13
-47.14
-53.51
-60.42
-68.05
-76.54
-86.02
-96.50
-107.67
-118.48
-126.94
-130.26
-125.56
-110.76
-85.45
-51.26
-11.38
30.22
69.87
104.87
133.64
155.65
171.03
180.35
184.46
184.43
181.41
176.46
170.40
163.65
156.24
147.90
138.21
126.88
113.87
99.46
84.18
68.67
53.50
39.10
25.74
13.63
2.99
-5.90
-12.81
-17.62
-20.44
-21.65
-21.79
-21.47
-21.21
-21.33
-21.92
-22.85
-23.88
-24.70
-25.09
-24.93
-24.28
-23.28
-22.13
-21.00
-20.02
-19.24
-18.63
-18.10
-17.55
-16.87
-15.98
-14.89
-13.63
-12.32
-11.07
-9.97
-9.04
-8.27
-7.59
-6.97
-6.48
-6.25
-6.41
-7.03
-8.03
-9.19
-10.21
-10.86
-11.05
-10.90
-10.68
-10.69
-11.07
-11.77
-12.52
-13.03
-13.12
-12.82
-12.35
-11.96
-11.83
-11.89
-11.91
-11.59
-10.75
-9.40
-7.90
-6.77
-6.63
-7.88
-10.55
-14.23
-18.17
-21.65
-24.24
-26.16
-28.16
-31.24
-36.15
-43.06
-51.37
-59.89
-67.29
-72.47
-74.94
-74.88
-73.01
-70.38
-67.95
-66.16
-64.47
-61.15
-53.53
-38.82
-15.23
16.96
54.95
94.02
128.85
155.19
171.01
176.85
175.01
168.35
158.98
147.87
135.09
120.65
105.12
89.88
76.60
66.50
59.74
55.24
51.16
45.61
37.28
25.78
11.66
-3.96
-19.69
-34.21
-46.59
-56.43
-63.85
-69.42
-73.85
-77.70
-81.26
-84.61
-87.73
-90.55
-92.94
-94.60
-94.95
-93.15
-88.31
-79.83
-67.58
-52.16
-34.69
-16.66
0.48
15.60
28.06
37.71
44.71
49.34
51.83
52.36
51.16
48.64
45.37
42.03
39.28
37.56
36.94
37.12
37.48
37.26
35.81
32.81
28.39
23.06
17.55
12.54
8.40
5.22
2.83
1.07
-0.18
-0.90
-1.06
-0.73
-0.06
0.71
1.37
1.82
2.11
2.36
2.69
3.16
3.67
4.06
4.11
3.62
2.53
0.90
-1.09
-3.20
-5.19
-6.91
-8.23
-9.12
-9.54
-9.52
-9.09
-8.32
-7.22
-5.82
-4.19
-2.44
-0.80
0.47
1.15
1.18
0.67
-0.09
-0.74
-1.03
-0.82
-0.10
1.02
2.37
3.72
4.83
5.45
5.43
4.69
3.35
1.62
-0.24
-1.96
-3.35
-4.29
-4.69
-4.56
-3.93
-2.90
-1.62
-0.29
0.92
1.86
2.39
2.45
2.08
1.36
0.44
-0.59
-1.70
-2.90
-4.18
-5.42
-6.34
-6.60
-5.95
-4.42
-2.40
-0.52
0.56
0.47
-0.79
-2.74
-4.74
-6.11
-6.48
-5.75
-4.11
-1.91
0.49
2.76
4.69
6.16
7.11
7.51
7.28
6.34
4.57
1.93
-1.54
-5.59
-9.86
-13.93
-17.41
-20.03
-21.70
-22.45
-22.41
-21.71
-20.48
-18.84
-16.92
-14.82
-12.69
-10.69
-8.93
-7.47
-6.27
-5.23
-4.29
-3.45
-2.78
-2.43
-2.51
-3.00
-3.77
-4.56
-5.18
-5.56
-5.80
-6.07
-6.50
-7.05
-7.53
-7.72
-7.44
-6.71
-5.73
-4.75
-3.93
-3.30
-2.71
-1.99
-1.08
-0.02
0.99
1.79
2.28
2.47
2.49
2.45
2.41
2.36
2.31
2.30
2.43
2.78
3.29
3.79
4.07
3.97
3.50
2.84
2.21
1.76
1.50
1.32
1.10
0.81
0.48
0.20
0.00
-0.19
-0.47
-0.97
-1.73
-2.72
-3.83
-4.90
-5.73
-6.11
-5.84
-4.81
-3.01
-0.59
2.16
4.89
7.27
9.03
10.08
10.46
10.34
9.92
9.38
8.85
8.35
7.89
7.41
6.90
6.34
5.75
5.12
4.44
3.73
3.04
2.43
1.95
1.57
1.16
0.58
-0.29
-1.45
-2.73
-3.89
-4.71
-5.12
-5.21
-5.20
-5.34
-5.77
-6.51
-7.47
-8.53
-9.57
-10.52
-11.29
-11.85
-12.20
-12.40
-12.63
-13.00
-13.54
-14.04
-14.15
-13.44
-11.62
-8.73
-5.16
-1.45
1.82
4.31
5.96
6.92
7.43
7.71
7.87
7.92
7.80
7.51
7.08
6.61
6.19
5.91
5.77
5.71
5.64
5.44
5.05
4.47
3.72
2.85
1.93
0.98
0.01
-1.01
-2.16
-3.51
-5.14
-7.08
-9.33
-11.77
-14.26
-16.64
-18.79
-20.68
-22.37
-24.00
-25.75
-27.79
-30.15
-32.69
-34.90
-36.09
-35.48
-32.55
-27.23
-20.01
-11.82
-3.74
3.31
8.86
12.82
15.45
17.13
18.22
19.00
19.63
20.22
20.79
21.31
21.73
21.96
22.01
21.85
21.54
21.12
20.63
20.11
19.62
19.21
18.89
18.63
18.33
17.86
17.13
16.09
14.79
13.36
11.89
10.46
9.10
7.85
6.74
5.85
5.14
4.57
4.00
3.32
2.40
1.20
-0.30
-2.09
-4.08
-6.20
-8.30
-10.25
-12.00
-13.61
-15.19
-16.82
-18.30
-19.17
-18.80
-16.66
-12.67
-7.26
-1.28
4.26
8.66
11.64
13.38
14.29
14.78
15.04
15.14
15.06
14.83
14.56
14.37
14.28
14.21
13.99
13.46
12.57
11.41
10.14
8.96
7.94
7.09
6.31
5.48
4.51
3.38
2.16
0.98
-0.08
-0.98
-1.80
-2.67
-3.76
-5.11
-6.63
-8.12
-9.31
-10.06
-10.41
-10.59
-10.85
-11.40
-12.28
-13.37
-14.48
-15.49
-16.44
-17.38
-18.41
-19.49
-20.56
-21.55
-22.42
-23.10
-23.36
-22.77
-20.78
-16.98
-11.40
-4.55
2.60
9.05
13.99
17.12
18.66
19.05
18.79
18.21
17.44
16.48
15.32
14.04
12.77
11.69
10.90
10.39
10.03
9.66
9.16
8.53
7.90
7.37
7.04
6.86
6.73
6.53
6.17
5.60
4.84
3.93
2.90
1.82
0.77
-0.21
-1.08
-1.86
-2.63
-3.52
-4.63
-6.02
-7.65
-9.44
-11.26
-12.99
-14.65
-16.29
-18.03
-19.94
-22.03
-24.21
-26.32
-28.09
-29.13
-28.93
-27.00
-23.04
-17.17
-9.94
-2.26
4.89
10.75
15.01
17.73
19.21
19.81
19.79
19.34
18.64
17.88
17.30
17.07
17.22
17.69
18.28
18.78
19.04
19.03
18.84
18.62
18.49
18.47
18.42
18.13
17.35
15.92
13.90
11.49
9.04
6.83
5.06
3.70
2.57
1.40
-0.06
-1.85
-3.90
-5.97
-7.84
-9.35
-10.47
-11.36
-12.21
-13.19
-14.38
-15.69
-16.98
-18.10
-19.00
-19.70
-20.37
-21.15
-22.14
-23.41
-24.96
-26.77
-28.66
-30.19
-30.70
-29.37
-25.62
-19.42
-11.38
-2.68
5.44
11.99
16.58
19.36
20.74
21.10
20.69
19.58
17.85
15.70
13.41
11.27
9.46
8.00
6.80
5.66
4.42
2.90
1.01
-1.32
-4.06
-7.05
-10.02
-12.64
-14.61
-15.83
-16.41
-16.75
-17.31
-18.40
-20.04
-21.91
-23.41
-23.98
-23.32
-21.55
-19.18
-16.87
-15.21
-14.49
-14.67
-15.42
-16.24
-16.55
-15.85
-13.88
-10.67
-6.56
-2.10
2.10
5.74
8.91
12.28
16.92
24.00
34.38
48.19
64.70
82.40
99.59
114.79
127.06
135.91
140.83
140.91
134.85
121.46
100.56
73.57
43.40
13.79
-11.96
-31.80
-45.28
-53.06
-56.25
-55.79
-52.40
-46.78
-39.85
-32.83
-27.02
-23.34
-22.07
-22.71
-24.32
-25.80
-26.37
-25.72
-24.02
-21.81
-19.63
-17.92
-16.81
-16.19
-15.81
-15.44
-15.00
-14.55
-14.23
-14.12
-14.21
-14.36
-14.34
-13.95
-13.09
-11.75
-10.08
-8.32
-6.70
-5.36
-4.32
-3.54
-2.93
-2.49
-2.27
-2.35
-2.71
-3.24
-3.73
-4.00
-4.01
-3.90
-3.93
-4.33
-5.19
-6.44
-7.87
-9.24
-10.38
-11.20
-11.71
-11.96
-12.04
-12.07
-12.17
-12.46
-13.01
-13.85
-14.89
-16.01
-17.06
-17.90
-18.48
-18.84
-19.08
-19.30
-19.53
-19.77
-19.96
-20.12
-20.40
-21.01
-22.14
-23.79
-25.73
-27.59
-29.05
-30.02
-30.71
-31.52
-32.84
-34.84
-37.43
-40.29
-43.08
-45.57
-47.77
-49.98
-52.73
-56.50
-61.68
-68.25
-75.75
-83.38
-90.11
-95.05
-97.65
-97.89
-96.24
-93.51
-90.50
-87.67
-84.70
-80.43
-73.02
-60.59
-42.01
-17.58
10.84
40.27
67.54
90.15
106.89
117.85
124.05
126.89
127.72
127.64
127.42
127.46
127.78
127.99
127.49
125.67
122.13
116.75
109.65
101.01
91.05
80.03
68.36
56.65
45.56
35.65
27.11
19.79
13.28
7.24
1.61
-3.36
-7.29
-9.91
-11.29
-11.80
-11.99
-12.33
-13.07
-14.22
-15.70
-17.43
-19.44
-21.68
-23.97
-25.78
-26.34
-24.81
-20.58
-13.49
-3.91
7.31
19.14
30.53
40.68
49.03
55.25
59.14
60.51
59.26
55.48
49.68
42.80
36.18
31.22
28.99
29.87
33.46
38.73
44.39
49.28
52.60
54.02
53.52
51.33
47.83
43.47
38.78
34.27
30.34
27.16
24.61
22.35
19.92
16.89
13.07
8.58
3.89
-0.24
-2.99
-3.69
-2.02
1.78
7.04
12.77
17.98
21.92
24.23
24.98
24.47
23.03
20.95
18.33
15.18
11.44
7.13
2.27
-3.04
-8.74
-14.80
-21.14
-27.60
-33.91
-39.70
-44.57
-48.21
-50.48
-51.44
-51.30
-50.31
-48.76
-46.88
-44.86
-42.84
-40.87
-38.93
-36.89
-34.62
-32.08
-29.33
-26.62
-24.25
-22.51
-21.47
-21.02
-20.91
-20.87
-20.75
-20.57
-20.47
-20.58
-21.03
-21.79
-22.78
-23.90
-25.06
-26.19
-27.10
-27.49
-26.91
-24.95
-21.40
-16.41
-10.48
-4.36
1.15
5.41
8.04
8.98
8.42
6.72
4.35
1.76
-0.66
-2.69
-4.33
-5.72
-7.11
-8.77
-10.87
-13.51
-16.67
-20.25
-24.13
-28.22
-32.46
-36.80
-41.18
-45.40
-49.20
-52.28
-54.43
-55.67
-56.30
-56.82
-57.77
-59.51
-62.08
-65.24
-68.48
-71.19
-72.76
-72.72
-70.85
-67.17
-62.01
-55.89
-49.39
-42.88
-36.42
-29.66
-21.93
-12.54
-1.00
12.75
28.36
45.08
61.97
78.08
92.51
104.60
113.90
120.26
123.82
125.04
124.52
122.86
120.51
117.68
114.36
110.38
105.57
99.79
92.94
85.01
76.02
66.05
55.31
44.07
32.72
21.68
11.40
2.29
-5.27
-11.09
-15.14
-17.64
-18.98
-19.64
-20.15
-20.92
-22.23
-24.17
-26.66
-29.50
-32.45
-35.31
-37.92
-40.29
-42.53
-44.77
-47.15
-49.75
-52.56
-55.43
-58.04
-59.88
-60.38
-59.13
-56.00
-51.34
-45.89
-40.47
-35.78
-32.15
-29.51
-27.51
-25.76
-23.91
-21.84
-19.55
-17.09
-14.53
-11.87
-9.05
-6.04
-2.87
0.30
3.18
5.44
6.92
7.61
7.78
7.81
8.00
8.49
9.21
9.93
10.43
10.57
10.27
9.58
8.55
7.31
6.00
4.76
3.68
2.68
1.55
-0.01
-2.17
-4.90
-7.94
-10.89
-13.43
-15.47
-17.15
-18.84
-21.00
-24.03
-28.18
-33.36
-38.95
-43.77
-46.18
-44.48
-37.57
-25.41
-9.29
8.56
25.53
39.53
49.45
55.26
57.74
57.94
56.81
54.95
52.69
50.23
47.79
45.59
43.78
42.36
41.17
39.98
38.54
36.77
34.77
32.74
30.93
29.46
28.30
27.27
26.07
24.43
22.25
19.60
16.75
14.03
11.72
9.92
8.51
7.18
5.57
3.46
0.81
-2.25
-5.43
-8.38
-10.88
-12.81
-14.25
-15.47
-16.83
-18.71
-21.29
-24.53
-28.09
-31.55
-34.52
-36.88
-38.74
-40.48
-42.59
-45.51
-49.50
-54.45
-59.69
-63.96
-65.53
-62.73
-54.47
-40.92
-23.55
-4.80
12.68
26.84
36.74
42.52
45.00
45.24
44.11
42.24
40.12
38.16
36.73
36.05
36.07
36.49
36.91
36.98
36.53
35.62
34.47
33.33
32.34
31.53
30.76
29.81
28.40
26.40
23.84
20.92
17.99
15.35
13.17
11.41
9.87
8.32
6.66
4.92
3.19
1.57
0.03
-1.56
-3.36
-5.46
-7.80
-10.21
-12.43
-14.31
-15.82
-17.19
-18.76
-20.86
-23.63
-26.93
-30.39
-33.55
-36.14
-38.15
-39.90
-41.85
-44.43
-47.93
-52.39
-57.41
-62.07
-64.93
-64.26
-58.56
-47.32
-31.34
-12.75
5.69
21.45
33.05
40.25
43.82
44.89
44.41
42.95
40.79
38.18
35.49
33.20
31.70
31.07
31.04
31.10
30.76
29.75
28.19
26.48
25.09
24.34
24.17
24.18
23.81
22.60
20.40
17.41
14.12
11.03
8.46
6.45
4.77
3.03
0.89
-1.79
-4.93
-8.19
-11.18
-13.56
-15.17
-16.16
-16.94
-18.04
-19.88
-22.61
-26.03
-29.62
-32.80
-35.14
-36.58
-37.43
-38.31
-39.88
-42.61
-46.62
-51.45
-56.07
-58.90
-58.20
-52.58
-41.58
-26.02
-7.90
10.15
25.71
37.23
44.37
47.81
48.68
48.00
46.44
44.34
41.89
39.39
37.19
35.58
34.60
34.03
33.45
32.48
30.98
29.07
27.10
25.45
24.34
23.79
23.54
23.17
22.29
20.67
18.31
15.47
12.53
9.78
7.34
5.14
3.02
0.87
-1.31
-3.39
-5.28
-7.03
-8.80
-10.81
-13.15
-15.69
-18.12
-20.12
-21.58
-22.68
-23.83
-25.47
-27.81
-30.72
-33.76
-36.43
-38.41
-39.69
-40.61
-41.69
-43.45
-46.25
-50.16
-54.79
-59.23
-61.99
-61.31
-55.69
-44.53
-28.55
-9.80
8.96
25.05
36.79
43.80
46.81
47.11
45.92
44.03
41.87
39.60
37.44
35.66
34.51
34.00
33.91
33.78
33.16
31.84
29.92
27.81
25.99
24.82
24.31
24.15
23.83
22.90
21.17
18.82
16.28
14.00
12.23
10.85
9.56
7.95
5.83
3.32
0.80
-1.34
-2.91
-4.04
-5.11
-6.48
-8.33
-10.54
-12.77
-14.67
-16.11
-17.21
-18.31
-19.81
-21.93
-24.66
-27.77
-30.89
-33.70
-36.04
-37.96
-39.66
-41.48
-43.80
-46.89
-50.88
-55.47
-59.81
-62.47
-61.79
-56.41
-45.86
-30.94
-13.63
3.51
18.12
28.72
35.03
37.69
37.81
36.46
34.35
31.92
29.42
27.11
25.24
23.96
23.22
22.77
22.22
21.28
19.89
18.23
16.71
15.66
15.27
15.40
15.73
15.86
15.47
14.49
13.04
11.45
10.01
8.97
8.38
8.15
8.07
7.95
7.67
7.27
6.90
6.76
6.98
7.53
8.24
8.81
8.95
8.53
7.57
6.29
4.93
3.73
2.82
2.19
1.75
1.31
0.65
-0.51
-2.39
-5.06
-8.25
-11.26
-13.07
-12.70
-9.53
-3.64
4.18
12.73
20.75
27.33
32.01
34.74
35.63
34.80
32.36
28.47
23.45
17.77
11.95
6.46
1.55
-2.71
-6.38
-9.53
-12.20
-14.39
-16.06
-17.18
-17.76
-17.84
-17.53
-16.97
-16.34
-15.79
-15.40
-15.13
-14.82
-14.27
-13.34
-12.05
-10.58
-9.16
-8.05
-7.44
-7.44
-8.08
-9.28
-10.82
-12.34
-13.42
-13.84
-13.65
-13.28
-13.28
-14.08
-15.81
-18.15
-20.59
-22.70
-24.25
-25.37
-26.32
-27.36
-28.70
-30.48
-32.76
-35.42
-38.01
-39.69
-39.37
-36.10
-29.51
-20.09
-9.10
1.87
11.44
18.86
24.05
27.39
29.39
30.38
30.54
29.96
28.81
27.35
25.95
24.87
24.21
23.85
23.51
22.89
21.81
20.34
18.73
17.30
16.28
15.66
15.18
14.46
13.19
11.22
8.68
5.82
2.99
0.46
-1.64
-3.33
-4.71
-5.97
-7.27
-8.67
-10.14
-11.52
-12.66
-13.47
-14.05
-14.66
-15.65
-17.29
-19.66
-22.54
-25.55
-28.28
-30.42
-31.93
-32.97
-33.85
-34.97
-36.70
-39.23
-42.49
-45.91
-48.44
-48.65
-45.27
-37.64
-26.16
-12.25
2.06
14.81
24.70
31.35
35.13
36.75
36.89
35.96
34.23
31.96
29.55
27.47
26.13
25.69
25.98
26.56
26.91
26.66
25.71
24.25
22.68
21.35
20.42
19.77
19.07
17.94
16.14
13.69
10.87
8.07
5.63
3.64
1.96
0.30
-1.60
-3.78
-6.02
-7.98
-9.34
-9.97
-10.02
-9.81
-9.76
-10.20
-11.38
-13.34
-15.98
-19.03
-22.10
-24.86
-27.07
-28.79
-30.35
-32.25
-34.98
-38.70
-43.09
-47.18
-49.56
-48.74
-43.68
-34.20
-21.21
-6.45
8.00
20.36
29.64
35.67
38.90
39.98
39.50
37.93
35.65
33.09
30.73
28.94
27.89
27.47
27.36
27.20
26.72
25.88
24.84
23.85
23.15
22.80
22.65
22.37
21.61
20.10
17.85
15.08
12.20
9.65
7.69
6.32
5.29
4.22
2.76
0.75
-1.75
-4.46
-7.09
-9.45
-11.62
-13.88
-16.61
-20.07
-24.20
-28.70
-33.06
-36.85
-39.89
-42.26
-44.27
-46.29
-48.66
-51.65
-55.37
-59.56
-63.43
-65.60
-64.33
-58.17
-46.56
-30.35
-11.67
6.71
22.28
33.55
40.34
43.50
44.32
43.90
42.93
41.68
40.26
38.83
37.65
36.95
36.76
36.83
36.74
36.15
34.92
33.26
31.51
30.04
28.96
28.16
27.40
26.44
25.22
23.81
22.34
20.86
19.36
17.72
15.88
13.90
11.90
9.97
8.11
6.18
3.98
1.39
-1.56
-4.68
-7.70
-10.45
-12.97
-15.55
-18.60
-22.51
-27.45
-33.22
-39.34
-45.07
-49.79
-53.12
-55.08
-56.10
-56.79
-57.86
-59.84
-62.97
-66.96
-70.74
-72.52
-70.05
-61.49
-46.14
-25.12
-1.15
22.23
41.93
56.18
64.87
69.15
70.51
70.16
68.71
66.42
63.53
60.48
57.78
55.76
54.41
53.35
52.06
50.18
47.70
44.91
42.25
40.05
38.38
37.00
35.47
33.39
30.51
26.80
22.45
17.79
13.14
8.76
4.83
1.39
-1.56
-4.04
-6.10
-7.75
-9.02
-9.89
-10.37
-10.51
-10.49
-10.53
-10.85
-11.64
-12.87
-14.38
-15.93
-17.28
-18.33
-19.17
-19.98
-20.98
-22.30
-23.98
-25.95
-28.04
-30.14
-32.14
-33.97
-35.56
-36.93
-38.18
-39.49
-41.05
-42.81
-44.41
-45.10
-44.00
-40.51
-34.61
-26.99
-18.77
-11.10
-4.74
0.12
3.71
6.34
8.22
9.34
9.67
9.30
8.56
7.92
7.74
8.19
9.12
10.23
11.24
11.98
12.47
12.84
13.25
13.74
14.24
14.60
14.60
14.13
13.19
11.89
10.44
9.02
7.74
6.60
5.51
4.29
2.80
0.99
-1.08
-3.29
-5.46
-7.47
-9.28
-10.95
-12.66
-14.56
-16.77
-19.22
-21.67
-23.84
-25.52
-26.73
-27.72
-28.94
-30.85
-33.79
-37.77
-42.35
-46.53
-48.91
-48.01
-42.77
-33.00
-19.60
-4.38
10.50
23.23
32.71
38.81
42.04
43.18
42.95
41.87
40.28
38.44
36.61
34.98
33.63
32.56
31.59
30.59
29.44
28.14
26.85
25.73
24.91
24.34
23.87
23.24
22.27
20.85
19.05
17.04
14.98
13.01
11.13
9.29
7.41
5.44
3.45
1.53
-0.18
-1.64
-2.92
-4.19
-5.70
-7.60
-9.88
-12.36
-14.74
-16.79
-18.48
-19.97
-21.54
-23.44
-25.72
-28.19
-30.57
-32.60
-34.20
-35.45
-36.56
-37.73
-39.14
-40.94
-43.28
-46.06
-48.86
-50.72
-50.38
-46.62
-38.86
-27.51
-13.92
-0.00
12.48
22.42
29.52
34.14
36.92
38.37
38.82
38.46
37.52
36.32
35.22
34.48
34.11
33.92
33.57
32.80
31.56
30.01
28.44
27.14
26.24
25.70
25.30
24.74
23.73
22.08
19.83
17.22
14.63
12.43
10.80
9.69
8.76
7.65
6.10
4.10
1.84
-0.38
-2.33
-3.88
-5.10
-6.17
-7.26
-8.51
-9.92
-11.39
-12.74
-13.87
-14.76
-15.60
-16.66
-18.18
-20.23
-22.67
-25.16
-27.41
-29.24
-30.71
-31.97
-33.23
-34.65
-36.37
-38.49
-40.96
-43.45
-45.20
-45.13
-42.18
-35.78
-26.22
-14.69
-2.89
7.61
15.81
21.52
25.12
27.20
28.22
28.43
27.97
27.00
25.83
24.77
24.03
23.61
23.30
22.82
22.00
20.84
19.54
18.34
17.43
16.84
16.45
16.06
15.48
14.59
13.37
11.86
10.15
8.31
6.42
4.56
2.80
1.24
-0.11
-1.27
-2.33
-3.40
-4.59
-5.98
-7.57
-9.34
-11.15
-12.91
-14.50
-15.84
-16.96
-18.00
-19.16
-20.62
-22.47
-24.61
-26.82
-28.83
-30.48
-31.85
-33.20
-34.90
-37.27
-40.39
-43.92
-47.04
-48.55
-47.25
-42.31
-33.66
-22.11
-9.14
3.53
14.53
23.11
29.18
33.03
35.09
35.69
35.07
33.53
31.47
29.37
27.62
26.40
25.67
25.19
24.74
24.19
23.56
22.98
22.53
22.26
22.07
21.82
21.33
20.46
19.11
17.23
14.89
12.25
9.58
7.15
5.15
3.57
2.20
0.70
-1.24
-3.73
-6.57
-9.34
-11.57
-12.95
-13.60
-13.97
-14.72
-16.39
-19.14
-22.71
-26.49
-29.85
-32.36
-34.03
-35.20
-36.36
-38.02
-40.51
-43.95
-48.11
-52.34
-55.49
-56.06
-52.61
-44.32
-31.43
-15.37
1.60
17.11
29.35
37.59
42.11
43.83
43.79
42.78
41.25
39.42
37.45
35.57
34.02
32.95
32.35
31.99
31.60
30.99
30.16
29.29
28.57
28.08
27.71
27.16
26.13
24.47
22.24
19.69
17.12
14.72
12.53
10.47
8.45
6.44
4.46
2.55
0.68
-1.23
-3.33
-5.69
-8.24
-10.81
-13.18
-15.21
-16.91
-18.45
-20.06
-21.95
-24.23
-26.84
-29.63
-32.39
-34.91
-37.05
-38.78
-40.19
-41.51
-43.11
-45.38
-48.65
-52.88
-57.46
-61.11
-62.05
-58.56
-49.63
-35.55
-17.94
0.66
17.61
31.07
40.31
45.75
48.35
49.10
48.64
47.30
45.29
42.95
40.77
39.18
38.38
38.20
38.21
37.96
37.20
36.01
34.69
33.57
32.80
32.31
31.83
31.03
29.71
27.78
25.36
22.66
19.92
17.37
15.19
13.44
12.01
10.70
9.20
7.34
5.11
2.71
0.43
-1.48
-3.02
-4.39
-5.90
-7.82
-10.14
-12.64
-14.91
-16.58
-17.54
-17.94
-18.15
-18.51
-19.18
-20.07
-20.90
-21.35
-21.25
-20.63
-19.72
-18.80
-18.08
-17.68
-17.66
-18.03
-18.76
-19.69
-20.49
-20.67
-19.77
-17.54
-14.15
-10.13
-6.17
-2.85
-0.44
1.10
2.00
2.45
2.56
2.32
1.84
1.33
1.09
1.37
2.24
3.47
4.69
5.55
5.87
5.75
5.45
5.23
5.22
5.37
5.47
5.30
4.68
3.57
2.07
0.38
-1.29
-2.71
-3.78
-4.47
-4.90
-5.19
-5.46
-5.74
-5.94
-5.95
-5.67
-5.20
-4.81
-4.85
-5.64
-7.36
-9.87
-12.85
-15.87
-18.57
-20.81
-22.69
-24.46
-26.43
-28.87
-31.89
-35.40
-38.96
-41.83
-42.97
-41.40
-36.51
-28.39
-17.90
-6.40
4.65
14.19
21.68
27.14
30.81
32.99
33.91
33.75
32.75
31.25
29.61
28.15
27.03
26.25
25.65
25.05
24.30
23.37
22.30
21.27
20.45
19.94
19.70
19.50
19.04
18.00
16.22
13.79
11.02
8.34
6.06
4.28
2.79
1.22
-0.74
-3.16
-5.80
-8.24
-10.09
-11.23
-11.87
-12.46
-13.49
-15.25
-17.69
-20.47
-23.16
-25.45
-27.25
-28.76
-30.28
-32.13
-34.54
-37.62
-41.30
-45.23
-48.65
-50.42
-49.27
-44.25
-35.22
-23.06
-9.46
3.65
14.74
23.07
28.75
32.36
34.53
35.63
35.85
35.32
34.29
33.15
32.30
31.92
31.93
31.98
31.67
30.74
29.23
27.43
25.81
24.76
24.44
24.71
25.14
25.24
24.59
23.05
20.76
18.08
15.42
13.06
11.10
9.38
7.68
5.75
3.51
1.02
-1.48
-3.69
-5.35
-6.34
-6.76
-6.89
-7.10
-7.73
-8.91
-10.58
-12.49
-14.38
-16.10
-17.68
-19.28
-21.07
-23.18
-25.69
-28.67
-32.16
-36.03
-39.83
-42.68
-43.47
-41.21
-35.52
-26.88
-16.54
-6.05
3.23
10.52
15.74
19.19
21.30
22.35
22.45
21.69
20.32
18.72
17.40
16.73
16.86
17.56
18.41
18.99
19.09
18.82
18.54
18.62
19.22
20.15
20.98
21.25
20.75
19.60
18.19
16.89
15.92
15.19
14.45
13.42
12.01
10.37
8.78
7.52
6.71
6.23
5.81
5.15
4.07
2.54
0.72
-1.17
-2.95
-4.53
-5.89
-7.03
-7.90
-8.46
-8.72
-8.83
-9.05
-9.62
-10.51
-11.35
-11.47
-10.23
-7.34
-3.09
1.79
6.44
10.21
12.85
14.46
15.26
15.37
14.75
13.28
10.94
7.91
4.55
1.23
-1.76
-4.29
-6.35
-7.99
-9.26
-10.20
-10.79
-11.05
-11.02
-10.77
-10.44
-10.21
-10.20
-10.50
-11.11
-11.93
-12.79
-13.55
-14.10
-14.44
-14.65
-14.88
-15.24
-15.77
-16.45
-17.21
-18.01
-18.84
-19.74
-20.77
-21.95
-23.31
-24.76
-26.24
-27.65
-28.86
-29.79
-30.37
-30.63
-30.67
-30.67
-30.87
-31.46
-32.49
-33.74
-34.76
-34.87
-33.48
-30.28
-25.42
-19.46
-13.18
-7.30
-2.20
2.04
5.58
8.56
10.99
12.79
13.86
14.28
14.29
14.26
14.49
15.16
16.17
17.32
18.33
19.06
19.50
19.77
20.07
20.52
21.10
21.61
21.79
21.42
20.49
19.13
17.63
16.28
15.22
14.39
13.56
12.46
10.87
8.77
6.27
3.61
1.09
-1.13
-3.07
-4.95
-7.09
-9.79
-13.12
-16.90
-20.68
-23.96
-26.44
-28.08
-29.19
-30.31
-32.04
-34.80
-38.73
-43.42
-47.91
-50.86
-50.78
-46.64
-38.29
-26.60
-13.28
-0.24
10.98
19.63
25.72
29.76
32.24
33.45
33.50
32.48
30.67
28.56
26.70
25.47
24.94
24.85
24.80
24.53
23.96
23.30
22.81
22.64
22.73
22.83
22.60
21.85
20.62
19.09
17.58
16.28
15.20
14.20
13.02
11.44
9.32
6.74
3.91
1.14
-1.31
-3.33
-4.98
-6.52
-8.27
-10.53
-13.36
-16.59
-19.80
-22.53
-24.46
-25.54
-26.08
-26.67
-27.94
-30.43
-34.32
-39.27
-44.37
-48.20
-49.15
-45.96
-38.12
-26.25
-11.93
2.75
15.85
26.10
33.13
37.30
39.31
39.87
39.46
38.35
36.75
34.91
33.11
31.62
30.61
30.09
29.92
29.86
29.66
29.18
28.43
27.52
26.57
25.64
24.64
23.43
21.87
19.96
17.80
15.63
13.65
11.95
10.47
9.03
7.51
5.85
4.16
2.53
1.05
-0.40
-2.01
-3.97
-6.33
-8.93
-11.43
-13.48
-14.92
-15.86
-16.65
-17.73
-19.44
-21.87
-24.80
-27.85
-30.62
-32.86
-34.57
-35.99
-37.51
-39.51
-42.35
-46.14
-50.62
-54.97
-57.88
-57.74
-53.23
-43.82
-30.19
-14.14
2.02
16.13
26.89
34.02
38.07
39.88
40.20
39.56
38.28
36.69
35.16
34.05
33.50
33.38
33.37
33.10
32.42
31.38
30.26
29.32
28.69
28.29
27.86
27.11
25.86
24.09
21.97
19.78
17.77
16.09
14.71
13.43
11.96
10.10
7.84
5.32
2.88
0.84
-0.64
-1.60
-2.24
-2.91
-3.93
-5.49
-7.60
-10.07
-12.57
-14.77
-16.49
-17.78
-18.91
-20.31
-22.31
-25.03
-28.28
-31.61
-34.52
-36.69
-38.09
-39.06
-40.10
-41.80
-44.59
-48.57
-53.31
-57.75
-60.32
-59.38
-53.72
-43.18
-28.74
-12.42
3.46
16.93
26.90
33.26
36.61
37.82
37.65
36.68
35.28
33.79
32.56
31.80
31.59
31.73
31.85
31.53
30.54
28.92
27.04
25.36
24.25
23.81
23.80
23.80
23.36
22.28
20.58
18.55
16.49
14.62
12.96
11.35
9.58
7.54
5.30
3.08
1.15
-0.30
-1.31
-2.09
-2.94
-4.08
-5.53
-7.18
-8.78
-10.19
-11.39
-12.51
-13.78
-15.36
-17.32
-19.59
-22.04
-24.51
-26.85
-28.95
-30.80
-32.44
-34.08
-36.02
-38.61
-42.03
-46.06
-49.89
-52.28
-51.79
-47.27
-38.36
-25.72
-10.88
4.14
17.43
27.70
34.51
38.18
39.42
39.01
37.54
35.40
32.84
30.14
27.70
25.88
24.92
24.79
25.12
25.46
25.42
24.92
24.14
23.46
23.11
23.06
23.02
22.52
21.22
19.06
16.27
13.27
10.52
8.33
6.78
5.75
4.93
3.97
2.59
0.69
-1.58
-3.95
-6.10
-7.84
-9.22
-10.47
-11.91
-13.72
-15.91
-18.31
-20.65
-22.73
-24.48
-25.94
-27.27
-28.70
-30.49
-32.90
-36.10
-39.91
-43.67
-46.17
-45.91
-41.68
-33.02
-20.61
-6.09
8.47
21.21
31.06
37.77
41.75
43.67
44.13
43.55
42.26
40.55
38.78
37.26
36.13
35.32
34.53
33.38
31.58
29.11
26.20
23.28
20.76
18.86
17.50
16.36
15.03
13.19
10.76
7.90
4.93
2.14
-0.26
-2.21
-3.71
-4.86
-5.77
-6.54
-7.34
-8.34
-9.73
-11.58
-13.77
-16.03
-17.99
-19.40
-20.30
-20.99
-21.98
-23.67
-26.18
-29.23
-32.31
-34.87
-36.65
-37.73
-38.54
-39.56
-41.23
-43.82
-47.35
-51.57
-55.79
-58.88
-59.39
-55.96
-47.87
-35.45
-20.20
-4.29
10.08
21.36
29.04
33.49
35.60
36.24
36.07
35.36
34.29
33.01
31.74
30.72
30.07
29.75
29.55
29.24
28.67
27.90
27.11
26.57
26.38
26.40
26.30
25.72
24.43
22.47
20.11
17.73
15.60
13.79
12.20
10.60
8.88
7.06
5.29
3.67
2.20
0.74
-0.91
-2.84
-4.96
-7.00
-8.70
-9.95
-10.86
-11.74
-12.93
-14.67
-16.98
-19.65
-22.38
-24.89
-27.01
-28.72
-30.09
-31.30
-32.52
-34.01
-36.09
-38.99
-42.67
-46.54
-49.41
-49.74
-46.23
-38.41
-26.96
-13.54
-0.23
11.22
19.90
25.80
29.45
31.45
32.20
31.90
30.70
28.93
27.07
25.59
24.74
24.45
24.42
24.28
23.81
22.98
21.95
20.96
20.18
19.67
19.34
19.00
18.43
17.45
16.01
14.22
12.31
10.55
9.09
7.94
6.91
5.71
4.09
1.99
-0.47
-2.99
-5.23
-6.94
-8.09
-8.88
-9.66
-10.81
-12.58
-15.03
-17.98
-21.07
-23.90
-26.18
-27.81
-28.93
-29.86
-31.02
-32.84
-35.58
-39.11
-42.82
-45.53
-45.81
-42.40
-34.68
-23.08
-9.03
5.43
18.33
28.30
34.92
38.54
39.95
39.96
39.20
38.05
36.75
35.53
34.60
34.11
34.09
34.37
34.66
34.66
34.22
33.41
32.49
31.79
31.51
31.60
31.73
31.45
30.38
28.42
25.79
22.94
20.39
18.49
17.28
16.57
15.94
14.97
13.28
10.66
7.11
2.85
-1.70
-6.09
-9.85
-12.70
-14.56
-15.49
-15.61
-15.02
-13.81
-12.08
-10.08
-8.16
-6.78
-6.32
-6.92
-8.41
-10.49
-12.74
-14.88
-16.78
-18.45
-19.96
-21.37
-22.70
-23.99
-25.32
-26.74
-28.21
-29.56
-30.44
-30.49
-29.44
-27.26
-24.19
-20.63
-17.03
-13.69
-10.75
-8.18
-5.90
-3.82
-1.92
-0.19
1.32
2.65
3.83
4.94
6.05
7.21
8.36
9.42
10.31
10.94
11.36
11.60
11.75
11.84
11.82
11.59
11.09
10.32
9.30
8.17
7.02
5.92
4.91
3.99
3.15
2.39
1.63
0.80
-0.20
-1.43
-2.87
-4.36
-5.73
-6.86
-7.78
-8.69
-9.86
-11.48
-13.56
-15.94
-18.33
-20.49
-22.28
-23.76
-25.03
-26.26
-27.55
-29.05
-30.84
-32.92
-35.08
-36.78
-37.25
-35.71
-31.71
-25.41
-17.54
-9.23
-1.56
4.77
9.57
13.03
15.49
17.25
18.44
19.12
19.38
19.39
19.38
19.47
19.70
19.93
19.99
19.76
19.25
18.56
17.88
17.27
16.73
16.13
15.28
14.08
12.48
10.55
8.43
6.29
4.30
2.59
1.19
0.07
-0.91
-1.91
-3.04
-4.31
-5.61
-6.76
-7.59
-8.05
-8.31
-8.61
-9.25
-10.39
-12.02
-13.96
-15.96
-17.79
-19.36
-20.74
-22.08
-23.55
-25.36
-27.63
-30.41
-33.47
-36.28
-37.95
-37.51
-34.22
-27.95
-19.30
-9.46
0.19
8.56
15.11
19.85
23.12
25.32
26.67
27.25
27.04
26.10
24.60
22.84
21.14
19.79
19.00
18.78
19.01
19.42
19.73
19.77
19.50
19.01
18.36
17.57
16.50
15.02
13.13
10.98
8.89
7.16
5.93
5.04
4.11
2.78
0.89
-1.41
-3.71
-5.53
-6.63
-7.08
-7.27
-7.64
-8.55
-10.01
-11.80
-13.56
-14.97
-15.92
-16.52
-17.04
-17.78
-19.03
-21.03
-23.93
-27.58
-31.43
-34.50
-35.53
-33.41
-27.67
-18.73
-7.84
3.34
13.27
20.98
26.26
29.45
31.15
31.92
32.17
32.18
32.11
32.17
32.46
33.05
33.87
34.73
35.41
35.71
35.56
35.04
34.30
33.46
32.52
31.33
29.68
27.43
24.61
21.47
18.36
15.62
13.43
11.77
10.48
9.33
8.15
6.85
5.39
3.78
2.01
0.05
-2.08
-4.30
-6.50
-8.52
-10.27
-11.74
-12.97
-14.04
-15.01
-15.96
-16.93
-18.00
-19.24
-20.64
-22.13
-23.55
-24.75
-25.61
-26.13
-26.48
-26.91
-27.63
-28.72
-29.97
-30.92
-31.03
-29.80
-27.02
-22.87
-17.86
-12.65
-7.86
-3.87
-0.75
1.61
3.38
4.70
5.63
6.19
6.43
6.50
6.57
6.80
7.20
7.72
8.17
8.38
8.29
7.89
7.25
6.41
5.40
4.23
2.92
1.54
0.26
-0.78
-1.50
-1.90
-2.14
-2.36
-2.69
-3.16
-3.73
-4.35
-5.01
-5.75
-6.67
-7.83
-9.23
-10.78
-12.34
-13.78
-15.03
-16.12
-17.20
-18.42
-19.96
-21.91
-24.25
-26.81
-29.32
-31.54
-33.32
-34.67
-35.76
-36.85
-38.25
-40.20
-42.83
-46.01
-49.25
-51.69
-52.22
-49.87
-44.17
-35.39
-24.57
-13.15
-2.49
6.54
13.71
19.30
23.79
27.54
30.67
33.12
34.85
35.94
36.67
37.40
38.34
39.50
40.64
41.43
41.58
41.04
39.99
38.69
37.32
35.87
34.11
31.79
28.80
25.30
21.66
18.28
15.42
13.09
11.04
8.93
6.51
3.76
0.89
-1.78
-3.98
-5.66
-7.00
-8.38
-10.18
-12.58
-15.46
-18.53
-21.42
-23.88
-25.90
-27.69
-29.59
-31.98
-35.16
-39.24
-44.05
-48.95
-52.79
-54.12
-51.56
-44.39
-32.91
-18.49
-3.18
10.96
22.47
30.82
36.26
39.46
41.10
41.63
41.25
40.15
38.53
36.76
35.22
34.14
33.56
33.26
32.93
32.32
31.37
30.25
29.24
28.59
28.28
28.09
27.63
26.57
24.81
22.50
20.00
17.61
15.48
13.55
11.62
9.54
7.31
5.08
3.01
1.20
-0.45
-2.13
-4.05
-6.25
-8.62
-10.84
-12.64
-13.91
-14.75
-15.53
-16.64
-18.35
-20.64
-23.26
-25.83
-28.04
-29.74
-31.00
-32.01
-33.04
-34.42
-36.45
-39.40
-43.27
-47.52
-51.02
-52.20
-49.65
-42.62
-31.51
-17.76
-3.43
9.56
19.90
27.19
31.71
34.07
34.90
34.69
33.78
32.48
31.11
29.95
29.19
28.85
28.77
28.65
28.23
27.35
26.06
24.58
23.23
22.27
21.79
21.64
21.50
21.01
19.94
18.23
16.07
13.77
11.66
9.98
8.72
7.69
6.56
5.03
3.01
0.64
-1.77
-3.88
-5.51
-6.72
-7.70
-8.73
-9.99
-11.53
-13.19
-14.76
-16.04
-16.99
-17.77
-18.65
-19.94
-21.77
-24.04
-26.44
-28.59
-30.22
-31.26
-31.91
-32.46
-33.29
-34.70
-36.91
-39.99
-43.72
-47.44
-50.06
-50.23
-46.82
-39.39
-28.43
-15.37
-2.07
9.75
18.99
25.41
29.41
31.65
32.76
33.10
32.87
32.21
31.33
30.46
29.82
29.45
29.23
28.94
28.36
27.44
26.30
25.14
24.12
23.26
22.44
21.45
20.15
18.52
16.64
14.71
12.89
11.27
9.85
8.52
7.18
5.70
4.06
2.29
0.48
-1.26
-2.85
-4.28
-5.60
-6.89
-8.21
-9.54
-10.82
-11.99
-13.06
-14.12
-15.34
-16.89
-18.84
-21.10
-23.42
-25.50
-27.10
-28.21
-29.03
-29.93
-31.35
-33.63
-36.88
-40.89
-44.98
-48.07
-48.83
-46.05
-39.13
-28.41
-15.19
-1.34
11.22
21.22
28.18
32.37
34.45
35.07
34.68
33.56
31.92
30.01
28.17
26.67
25.66
25.18
25.10
25.25
25.46
25.61
25.65
25.56
25.34
24.98
24.44
23.62
22.37
20.62
18.37
15.79
13.14
10.71
8.68
7.07
5.78
4.60
3.34
1.84
0.02
-2.12
-4.50
-6.93
-9.19
-11.06
-12.44
-13.46
-14.44
-15.78
-17.78
-20.49
-23.69
-27.03
-30.10
-32.70
-34.78
-36.50
-38.12
-39.97
-42.40
-45.61
-49.51
-53.48
-56.34
-56.57
-52.78
-44.34
-31.72
-16.47
-0.74
13.40
24.58
32.35
37.06
39.45
40.27
40.04
39.09
37.66
36.02
34.45
33.16
32.24
31.58
30.96
30.17
29.08
27.79
26.47
25.40
24.74
24.42
24.23
23.82
22.88
21.32
19.26
16.95
14.68
12.59
10.64
8.69
6.63
4.47
2.34
0.40
-1.27
-2.74
-4.27
-6.14
-8.49
-11.28
-14.21
-16.93
-19.14
-20.78
-22.07
-23.42
-25.19
-27.55
-30.37
-33.27
-35.82
-37.75
-39.01
-39.80
-40.48
-41.46
-43.12
-45.72
-49.16
-52.75
-55.20
-54.79
-49.99
-40.16
-25.91
-9.08
7.94
23.00
34.78
42.99
48.08
50.71
51.45
50.69
48.81
46.28
43.67
41.47
39.91
38.90
38.08
37.03
35.54
33.61
31.47
29.44
27.79
26.60
25.79
25.10
24.20
22.83
20.81
18.15
15.07
11.89
8.94
6.49
4.56
3.02
1.62
0.15
-1.46
-3.11
-4.63
-5.86
-6.78
-7.50
-8.20
-9.05
-10.13
-11.36
-12.61
-13.74
-14.66
-15.43
-16.22
-17.27
-18.72
-20.58
-22.67
-24.69
-26.41
-27.74
-28.76
-29.68
-30.74
-32.16
-34.07
-36.44
-38.94
-40.93
-41.47
-39.60
-34.75
-27.05
-17.46
-7.38
1.76
9.05
14.32
17.96
20.53
22.44
23.75
24.31
24.02
23.04
21.74
20.64
20.05
19.96
20.07
19.99
19.46
18.59
17.68
17.12
17.12
17.51
17.89
17.80
16.94
15.35
13.34
11.33
9.59
8.21
7.05
5.91
4.55
2.85
0.80
-1.54
-4.02
-6.44
-8.61
-10.40
-11.81
-13.02
-14.31
-15.95
-18.07
-20.63
-23.40
-26.08
-28.41
-30.24
-31.59
-32.66
-33.84
-35.60
-38.30
-41.95
-45.98
-49.20
-50.10
-47.36
-40.39
-29.69
-16.69
-3.31
8.75
18.44
25.53
30.33
33.33
34.96
35.46
35.08
34.10
32.90
31.79
30.93
30.23
29.52
28.64
27.58
26.50
25.60
25.01
24.72
24.58
24.35
23.85
22.97
21.67
20.02
18.15
16.16
14.16
12.17
10.17
8.14
6.06
3.94
1.90
0.07
-1.46
-2.69
-3.75
-4.86
-6.22
-7.88
-9.78
-11.67
-13.34
-14.68
-15.76
-16.83
-18.15
-19.90
-22.04
-24.42
-26.73
-28.78
-30.50
-32.01
-33.58
-35.49
-38.01
-41.27
-45.16
-49.23
-52.57
-54.00
-52.28
-46.57
-36.90
-24.20
-10.19
3.24
14.58
23.14
29.00
32.72
34.96
36.14
36.45
36.02
35.03
33.80
32.69
31.94
31.56
31.34
31.03
30.42
29.49
28.41
27.41
26.69
26.27
25.99
25.58
24.74
23.30
21.31
18.98
16.70
14.74
13.20
11.95
10.71
9.20
7.29
5.12
2.94
1.05
-0.36
-1.35
-2.12
-2.92
-4.01
-5.46
-7.22
-9.08
-10.83
-12.28
-13.37
-14.20
-15.00
-16.02
-17.47
-19.34
-21.42
-23.38
-24.97
-26.10
-26.94
-27.80
-29.02
-30.85
-33.37
-36.48
-39.80
-42.70
-44.26
-43.48
-39.63
-32.59
-23.04
-12.35
-2.06
6.57
13.03
17.49
20.52
22.69
24.28
25.31
25.72
25.59
25.20
24.88
24.85
25.06
25.24
25.06
24.35
23.18
21.82
20.61
19.77
19.31
19.11
18.91
18.50
17.72
16.54
14.98
13.12
11.08
9.02
7.06
5.36
3.94
2.76
1.65
0.42
-1.07
-2.87
-4.85
-6.81
-8.54
-9.95
-11.08
-12.12
-13.30
-14.81
-16.75
-19.05
-21.52
-23.90
-25.94
-27.53
-28.70
-29.66
-30.76
-32.38
-34.79
-38.00
-41.63
-44.88
-46.69
-45.93
-41.87
-34.41
-24.26
-12.70
-1.22
8.87
16.85
22.56
26.27
28.45
29.52
29.79
29.50
28.89
28.14
27.48
27.01
26.79
26.73
26.71
26.57
26.19
25.54
24.68
23.74
22.83
22.00
21.18
20.23
19.03
17.52
15.80
14.03
12.35
10.79
9.30
7.75
6.07
4.31
2.60
1.06
-0.29
-1.53
-2.85
-4.41
-6.21
-8.14
-9.99
-11.62
-13.01
-14.31
-15.76
-17.58
-19.86
-22.50
-25.25
-27.75
-29.74
-31.09
-31.92
-32.49
-33.22
-34.55
-36.83
-40.14
-44.06
-47.64
-49.54
-48.43
-43.47
-34.72
-23.12
-10.29
2.06
12.65
20.85
26.64
30.39
32.55
33.52
33.64
33.22
32.60
32.04
31.70
31.55
31.45
31.20
30.66
29.79
28.70
27.52
26.40
25.38
24.46
23.51
22.40
21.00
19.29
17.39
15.51
13.88
12.60
11.64
10.78
9.77
8.40
6.63
4.61
2.58
0.76
-0.71
-1.86
-2.86
-3.87
-5.07
-6.51
-8.10
-9.69
-11.08
-12.19
-13.02
-13.76
-14.63
-15.85
-17.48
-19.42
-21.47
-23.39
-25.02
-26.33
-27.39
-28.34
-29.41
-30.90
-33.02
-35.73
-38.54
-40.47
-40.29
-36.99
-30.27
-20.77
-9.90
0.70
9.78
16.79
21.85
25.40
27.79
29.19
29.60
29.13
28.06
26.84
25.84
25.20
24.80
24.37
23.65
22.56
21.22
19.84
18.64
17.73
17.14
16.74
16.42
16.04
15.50
14.77
13.80
12.56
11.06
9.34
7.50
5.68
4.02
2.57
1.28
-0.01
-1.49
-3.31
-5.40
-7.54
-9.41
-10.77
-11.54
-11.93
-12.28
-12.94
-14.15
-15.87
-17.91
-19.98
-21.85
-23.40
-24.63
-25.63
-26.57
-27.71
-29.30
-31.46
-34.04
-36.48
-37.90
-37.32
-34.09
-28.19
-20.28
-11.50
-3.02
4.30
10.10
14.44
17.60
19.84
21.32
22.16
22.52
22.63
22.73
23.01
23.47
23.95
24.26
24.23
23.84
23.22
22.55
21.98
21.57
21.24
20.80
20.09
18.99
17.54
15.86
14.12
12.51
11.09
9.90
8.87
7.89
6.87
5.71
4.39
2.93
1.38
-0.19
-1.69
-3.07
-4.27
-5.28
-6.12
-6.86
-7.65
-8.59
-9.78
-11.24
-12.93
-14.72
-16.50
-18.15
-19.61
-20.87
-21.93
-22.83
-23.69
-24.72
-26.13
-28.02
-30.15
-31.95
-32.56
-31.22
-27.58
-21.91
-15.04
-8.03
-1.74
3.37
7.35
10.45
12.91
14.80
16.08
16.76
16.98
16.98
17.04
17.24
17.50
17.67
17.63
17.36
16.99
16.64
16.38
16.19
15.96
15.60
15.06
14.37
13.56
12.69
11.73
10.69
9.56
8.36
7.13
5.87
4.54
3.13
1.67
0.23
-1.04
-2.03
-2.73
-3.19
-3.57
-4.01
-4.59
-5.26
-5.99
-6.74
-7.57
-8.55
-9.74
-11.10
-12.53
-13.87
-14.96
-15.76
-16.33
-16.84
-17.54
-18.65
-20.34
-22.54
-24.93
-26.92
-27.78
-26.89
-24.01
-19.37
-13.60
-7.47
-1.67
3.36
7.50
10.77
13.26
15.05
16.20
16.77
16.86
16.60
16.14
15.66
15.27
15.06
15.04
15.14
15.25
15.26
15.10
14.80
14.44
14.11
13.84
13.58
13.23
12.64
11.69
10.41
8.88
7.31
5.87
4.64
3.63
2.76
1.91
0.95
-0.17
-1.48
-2.95
-4.49
-5.96
-7.21
-8.20
-8.96
-9.68
-10.63
-12.03
-13.92
-16.19
-18.54
-20.64
-22.28
-23.38
-24.01
-24.38
-24.77
-25.44
-26.60
-28.29
-30.21
-31.75
-32.05
-30.38
-26.35
-20.24
-12.83
-5.19
1.76
7.45
11.76
14.89
17.08
18.53
19.39
19.74
19.74
19.61
19.55
19.68
19.99
20.35
20.57
20.53
20.13
19.42
18.52
17.64
16.94
16.51
16.26
15.97
15.43
14.47
13.11
11.52
9.91
8.45
7.25
6.28
5.52
4.94
4.48
4.10
3.74
3.31
2.73
1.97
1.00
-0.16
-1.48
-2.87
-4.24
-5.44
-6.38
-7.07
-7.62
-8.24
-9.11
-10.29
-11.70
-13.16
-14.47
-15.53
-16.35
-17.02
-17.67
-18.42
-19.39
-20.72
-22.45
-24.44
-26.31
-27.41
-27.10
-24.92
-20.92
-15.62
-9.82
-4.34
0.30
3.92
6.65
8.70
10.21
11.24
11.84
12.06
12.05
11.99
11.98
12.05
12.20
12.37
12.52
12.66
12.77
12.82
12.75
12.49
12.05
11.48
10.87
10.33
9.89
9.52
9.14
8.67
8.07
7.35
6.60
5.89
5.30
4.85
4.49
4.16
3.77
3.23
2.51
1.61
0.59
-0.45
-1.43
-2.31
-3.10
-3.86
-4.67
-5.62
-6.76
-8.08
-9.51
-10.94
-12.26
-13.40
-14.33
-15.15
-16.04
-17.22
-18.83
-20.80
-22.75
-24.05
-24.00
-22.17
-18.54
-13.58
-8.07
-2.79
1.69
5.16
7.68
9.44
10.60
11.25
11.48
11.41
11.21
11.00
10.89
10.87
10.94
11.04
11.14
11.20
11.15
10.99
10.74
10.48
10.33
10.34
10.43
10.46
10.22
9.58
8.61
7.46
6.35
5.40
4.65
4.01
3.45
2.95
2.55
2.30
2.19
2.09
1.85
1.33
0.50
-0.55
-1.65
-2.67
-3.53
-4.28
-5.04
-5.95
-7.10
-8.49
-10.00
-11.44
-12.65
-13.50
-14.03
-14.36
-14.70
-15.28
-16.27
-17.72
-19.50
-21.27
-22.57
-22.86
-21.69
-18.93
-14.78
-9.81
-4.75
-0.27
3.22
5.67
7.26
8.29
8.97
9.42
9.66
9.74
9.77
9.91
10.28
10.90
11.62
12.23
12.55
12.55
12.32
12.09
12.03
12.22
12.52
12.65
12.33
11.45
10.11
8.62
7.37
6.60
6.33
6.34
6.30
6.01
5.46
4.79
4.13
3.54
2.91
2.14
1.20
0.20
-0.69
-1.37
-1.87
-2.35
-2.95
-3.78
-4.77
-5.82
-6.83
-7.73
-8.51
-9.19
-9.79
-10.32
-10.76
-11.12
-11.44
-11.84
-12.48
-13.53
-15.02
-16.79
-18.46
-19.52
-19.53
-18.24
-15.73
-12.34
-8.53
-4.74
-1.25
1.77
4.27
6.22
7.62
8.48
8.88
8.91
8.71
8.43
8.20
8.10
8.18
8.40
8.69
8.97
9.14
9.18
9.11
8.98
8.82
8.62
8.33
7.85
7.13
6.21
5.21
4.33
3.73
3.45
3.41
3.43
3.32
2.95
2.30
1.50
0.72
0.13
-0.21
-0.31
-0.35
-0.55
-1.12
-2.15
-3.65
-5.45
-7.37
-9.21
-10.82
-12.08
-12.93
-13.38
-13.56
-13.72
-14.20
-15.23
-16.75
-18.39
-19.51
-19.45
-17.82
-14.68
-10.50
-5.96
-1.72
1.82
4.53
6.50
7.87
8.81
9.40
9.70
9.78
9.71
9.62
9.61
9.74
10.02
10.36
10.65
10.74
10.61
10.30
9.94
9.70
9.67
9.86
10.13
10.29
10.16
9.63
8.77
7.70
6.62
5.69
4.97
4.43
3.91
3.27
2.35
1.19
-0.10
-1.28
-2.12
-2.54
-2.66
-2.74
-3.13
-4.07
-5.56
-7.40
-9.29
-10.95
-12.26
-13.24
-13.97
-14.57
-15.05
-15.50
-16.06
-16.90
-18.14
-19.67
-21.09
-21.77
-21.16
-18.99
-15.45
-11.08
-6.57
-2.43
1.07
3.93
6.25
8.11
9.52
10.46
10.99
11.23
11.31
11.38
11.44
11.47
11.47
11.45
11.49
11.66
11.91
12.13
12.15
11.90
11.39
10.76
10.11
9.53
9.01
8.48
7.89
7.22
6.53
5.85
5.18
4.49
3.76
3.03
2.33
1.74
1.24
0.76
0.19
-0.53
-1.40
-2.32
-3.17
-3.89
-4.49
-5.06
-5.71
-6.52
-7.49
-8.54
-9.55
-10.39
-11.01
-11.42
-11.79
-12.36
-13.40
-15.02
-17.07
-19.08
-20.33
-20.13
-18.06
-14.13
-8.80
-2.78
3.18
8.56
13.09
16.77
19.73
22.06
23.82
25.05
25.80
26.23
26.50
26.80
27.18
27.59
27.84
27.72
27.13
26.11
24.87
23.68
22.75
22.13
21.70
21.25
20.59
19.63
18.43
17.12
15.82
14.57
13.33
12.01
10.57
8.98
7.29
5.52
3.67
1.73
-0.27
-2.31
-4.30
-6.19
-7.92
-9.51
-11.00
-12.42
-13.76
-15.00
-16.10
-17.08
-18.01
-18.98
-20.07
-21.27
-22.44
-23.38
-23.84
-23.69
-22.93
-21.71
-20.23
-18.69
-17.19
-15.76
-14.34
-12.88
-11.37
-9.84
-8.40
-7.17
-6.27
-5.72
-5.47
-5.36
-5.23
-4.93
-4.40
-3.67
-2.83
-1.96
-1.08
-0.20
0.71
1.60
2.40
3.00
3.41
3.69
3.94
4.15
4.15
3.66
2.44
0.47
-1.98
-4.38
-6.24
-7.25
-7.43
-7.02
-6.32
-5.60
-4.94
-4.35
-3.84
-3.46
-3.29
-3.37
-3.63
-3.93
-4.11
-4.10
-3.97
-3.92
-4.14
-4.73
-5.62
-6.59
-7.28
-7.40
-6.78
-5.47
-3.70
-1.77
0.01
1.45
2.45
3.08
3.42
3.61
3.73
3.80
3.77
3.60
3.24
2.72
2.09
1.46
0.92
0.51
0.20
-0.07
-0.33
-0.58
-0.78
-0.90
-1.01
-1.20
-1.58
-2.19
-2.91
-3.52
-3.80
-3.64
-3.11
-2.46
-1.93
-1.66
-1.65
-1.81
-2.08
-2.56
-3.46
-4.96
-7.04
-9.40
-11.60
-13.22
-14.10
-14.32
-14.21
-14.02
-13.85
-13.58
-12.98
-11.96
-10.55
-8.95
-7.41
-6.07
-4.93
-3.92
-2.98
-2.13
-1.45
-1.04
-0.96
-1.14
-1.49
-1.81
-1.91
-1.61
-0.86
0.29
1.60
2.73
3.38
3.41
2.89
2.06
1.20
0.49
-0.02
-0.40
-0.70
-0.94
-1.06
-1.03
-0.88
-0.67
-0.49
-0.36
-0.26
-0.11
0.11
0.37
0.55
0.51
0.18
-0.44
-1.25
-2.02
-2.59
-2.84
-2.83
-2.73
-2.80
-3.29
-4.36
-5.99
-7.93
-9.86
-11.46
-12.57
-13.27
-13.82
-14.59
-15.86
-17.76
-20.17
-22.75
-24.89
-25.88
-25.01
-21.89
-16.71
-10.23
-3.68
1.72
5.27
7.05
7.82
8.62
10.27
13.03
16.63
20.50
24.10
27.12
29.45
31.12
32.14
32.47
32.09
31.05
29.50
27.70
25.91
24.30
22.94
21.75
20.55
19.12
17.35
15.29
13.18
11.35
10.04
9.25
8.72
8.09
7.07
5.61
3.93
2.39
1.23
0.47
-0.10
-0.81
-1.91
-3.42
-5.17
-6.89
-8.35
-9.46
-10.25
-10.80
-11.24
-11.73
-12.45
-13.58
-15.22
-17.24
-19.25
-20.64
-20.79
-19.36
-16.44
-12.53
-8.31
-4.32
-0.82
2.22
4.91
7.23
9.04
10.08
10.28
9.73
8.80
7.85
7.16
6.75
6.46
6.02
5.24
4.09
2.71
1.35
0.23
-0.60
-1.28
-2.13
-3.44
-5.40
-7.92
-10.76
-13.60
-16.16
-18.41
-20.47
-22.59
-25.11
-28.27
-32.12
-36.54
-41.19
-45.66
-49.65
-53.06
-56.04
-58.82
-61.69
-64.90
-68.59
-72.73
-77.00
-80.61
-82.32
-80.69
-74.53
-63.48
-48.30
-30.69
-12.77
3.68
17.76
29.50
39.49
48.38
56.41
63.39
68.98
73.05
75.85
77.92
79.79
81.56
82.84
82.93
81.23
77.62
72.61
67.12
62.10
58.17
55.44
53.69
52.55
51.84
51.61
52.04
53.30
55.40
58.18
61.34
64.57
67.58
70.12
71.91
72.56
71.65
68.79
63.79
56.69
47.85
37.79
27.11
16.37
6.02
-3.62
-12.34
-20.02
-26.66
-32.33
-37.13
-41.20
-44.66
-47.54
-49.80
-51.37
-52.15
-52.00
-50.85
-48.69
-45.60
-41.75
-37.35
-32.66
-27.85
-23.07
-18.39
-13.91
-9.75
-6.07
-2.98
-0.49
1.52
3.26
4.91
6.51
7.92
8.92
9.32
9.12
8.50
7.78
7.22
6.96
6.94
7.06
7.22
7.34
7.41
7.36
7.06
6.42
5.39
4.10
2.79
1.71
1.02
0.70
0.58
0.40
-0.01
-0.75
-1.72
-2.78
-3.73
-4.48
-5.03
-5.50
-6.07
-6.91
-8.03
-9.36
-10.73
-11.98
-13.01
-13.82
-14.44
-14.85
-15.05
-15.00
-14.76
-14.44
-14.20
-14.15
-14.26
-14.39
-14.34
-13.93
-13.16
-12.13
-10.99
-9.87
-8.79
-7.77
-6.79
-5.90
-5.18
-4.65
-4.26
-3.86
-3.30
-2.51
-1.58
-0.70
-0.08
0.21
0.17
-0.04
-0.29
-0.49
-0.63
-0.74
-0.83
-0.90
-0.88
-0.75
-0.47
-0.11
0.23
0.42
0.39
0.14
-0.27
-0.72
-1.08
-1.29
-1.36
-1.32
-1.22
-1.09
-0.96
-0.87
-0.90
-1.08
-1.37
-1.63
-1.72
-1.58
-1.31
-1.17
-1.37
-2.02
-2.99
-3.98
-4.64
-4.80
-4.47
-3.80
-2.96
-2.03
-1.03
0.07
1.17
2.08
2.58
2.56
2.15
1.65
1.43
1.67
2.32
3.12
3.72
3.94
3.76
3.35
2.87
2.38
1.83
1.13
0.29
-0.52
-1.06
-1.12
-0.66
0.11
0.90
1.39
1.45
1.15
0.65
0.21
-0.08
-0.19
-0.25
-0.34
-0.49
-0.68
-0.88
-1.11
-1.40
-1.81
-2.37
-3.00
-3.61
-4.10
-4.47
-4.78
-5.13
-5.57
-6.06
-6.53
-6.87
-7.05
-7.03
-6.84
-6.45
-5.86
-5.08
-4.18
-3.28
-2.46
-1.82
-1.38
-1.11
-0.96
-0.92
-0.95
-1.02
-1.10
-1.12
-1.01
-0.74
-0.28
0.36
1.13
1.92
2.63
3.17
3.54
3.78
4.01
4.31
4.70
5.09
5.35
5.36
5.07
4.54
3.88
3.18
2.50
1.80
1.02
0.09
-1.03
-2.38
-3.98
-5.84
-7.95
-10.23
-12.51
-14.54
-16.07
-17.00
-17.45
-17.74
-18.26
-19.24
-20.60
-21.86
-22.35
-21.43
-18.76
-14.43
-8.95
-3.05
2.56
7.37
11.18
14.03
16.08
17.55
18.54
19.10
19.27
19.08
18.62
18.02
17.39
16.83
16.36
15.98
15.69
15.48
15.31
15.10
14.78
14.27
13.58
12.76
11.90
11.07
10.25
9.36
8.26
6.87
5.20
3.42
1.75
0.41
-0.48
-0.93
-1.10
-1.22
-1.47
-1.98
-2.75
-3.72
-4.77
-5.81
-6.74
-7.46
-7.95
-8.22
-8.37
-8.55
-8.96
-9.71
-10.81
-12.09
-13.28
-14.03
-14.03
-13.13
-11.38
-8.99
-6.28
-3.58
-1.14
0.97
2.74
4.22
5.41
6.34
7.01
7.48
7.86
8.22
8.53
8.72
8.66
8.30
7.73
7.11
6.60
6.27
5.99
5.64
5.10
4.40
3.69
3.10
2.69
2.34
1.88
1.20
0.32
-0.56
-1.23
-1.57
-1.63
-1.62
-1.72
-2.09
-2.75
-3.61
-4.60
-5.62
-6.62
-7.56
-8.42
-9.16
-9.86
-10.63
-11.60
-12.80
-14.11
-15.23
-15.80
-15.51
-14.24
-12.12
-9.45
-6.65
-4.10
-2.05
-0.55
0.44
1.07
1.50
1.80
2.01
2.14
2.23
2.38
2.69
3.24
3.96
4.64
5.00
4.81
4.00
2.71
1.24
-0.08
-1.04
-1.66
-2.13
-2.79
-3.91
-5.60
-7.69
-9.82
-11.55
-12.54
-12.75
-12.42
-12.03
-12.02
-12.65
-13.85
-15.36
-16.88
-18.27
-19.58
-21.00
-22.74
-24.92
-27.61
-30.78
-34.32
-37.95
-41.07
-42.80
-42.18
-38.56
-31.92
-22.99
-13.03
-3.39
4.98
11.72
16.99
21.15
24.49
27.09
28.90
29.92
30.35
30.50
30.71
31.16
31.78
32.35
32.56
32.28
31.55
30.58
29.62
28.87
28.36
27.91
27.24
26.08
24.34
22.13
19.75
17.54
15.67
14.13
12.72
11.15
9.24
7.01
4.65
2.42
0.49
-1.16
-2.71
-4.39
-6.37
-8.69
-11.21
-13.73
-16.05
-18.04
-19.69
-21.11
-22.52
-24.18
-26.35
-29.11
-32.17
-34.80
-35.96
-34.64
-30.29
-23.12
-14.10
-4.61
4.08
11.15
16.42
20.18
22.85
24.78
26.14
26.92
27.17
26.97
26.50
25.97
25.51
25.17
24.89
24.56
24.09
23.44
22.71
21.98
21.33
20.73
20.03
19.06
17.72
16.02
14.12
12.20
10.36
8.55
6.64
4.53
2.17
-0.32
-2.68
-4.69
-6.21
-7.28
-8.08
-8.90
-9.98
-11.45
-13.28
-15.31
-17.34
-19.17
-20.76
-22.13
-23.39
-24.70
-26.23
-28.10
-30.34
-32.75
-34.79
-35.70
-34.60
-30.94
-24.68
-16.44
-7.36
1.34
8.68
14.24
18.10
20.61
22.15
22.94
23.08
22.64
21.79
20.81
19.99
19.49
19.29
19.18
18.94
18.44
17.73
17.00
16.39
15.93
15.46
14.73
13.52
11.81
9.76
7.65
5.73
4.10
2.68
1.25
-0.40
-2.34
-4.48
-6.65
-8.70
-10.63
-12.58
-14.73
-17.25
-20.09
-23.06
-25.87
-28.32
-30.35
-32.05
-33.60
-35.18
-36.97
-39.13
-41.77
-44.80
-47.70
-49.52
-49.04
-45.17
-37.52
-26.63
-13.92
-1.17
10.06
18.94
25.38
29.80
32.71
34.49
35.31
35.32
34.80
34.16
33.82
33.99
34.55
35.17
35.45
35.11
34.12
32.71
31.18
29.77
28.59
27.57
26.54
25.27
23.63
21.59
19.23
16.71
14.24
12.05
10.27
8.90
7.77
6.62
5.18
3.25
0.85
-1.80
-4.34
-6.48
-8.08
-9.29
-10.46
-12.03
-14.27
-17.16
-20.41
-23.57
-26.28
-28.39
-30.01
-31.37
-32.75
-34.32
-36.23
-38.57
-41.33
-44.19
-46.46
-47.08
-44.93
-39.31
-30.29
-18.87
-6.62
4.81
14.24
21.25
26.03
29.10
30.92
31.77
31.79
31.13
30.09
29.10
28.49
28.39
28.62
28.76
28.44
27.46
25.94
24.20
22.61
21.40
20.58
19.94
19.18
18.07
16.50
14.57
12.45
10.38
8.51
6.89
5.47
4.19
2.97
1.77
0.59
-0.56
-1.69
-2.85
-4.06
-5.31
-6.58
-7.79
-8.92
-9.96
-10.97
-12.08
-13.36
-14.87
-16.56
-18.34
-20.10
-21.77
-23.31
-24.73
-26.06
-27.36
-28.78
-30.50
-32.64
-35.00
-36.97
-37.54
-35.73
-30.96
-23.42
-14.05
-4.24
4.71
12.01
17.44
21.22
23.70
25.12
25.63
25.36
24.55
23.55
22.71
22.22
22.06
22.01
21.80
21.26
20.34
19.23
18.15
17.34
16.84
16.54
16.17
15.44
14.19
12.50
10.60
8.80
7.28
6.06
4.97
3.79
2.30
0.49
-1.56
-3.63
-5.51
-7.08
-8.35
-9.44
-10.57
-11.93
-13.60
-15.54
-17.60
-19.59
-21.37
-22.94
-24.37
-25.78
-27.31
-29.11
-31.29
-33.88
-36.62
-38.92
-39.86
-38.44
-34.02
-26.68
-17.25
-7.13
2.31
10.10
15.95
20.08
22.91
24.78
25.81
26.04
25.54
24.60
23.58
22.84
22.51
22.54
22.68
22.65
22.33
21.70
20.94
20.24
19.78
19.56
19.47
19.28
18.74
17.67
16.06
14.04
11.89
9.92
8.31
7.11
6.18
5.24
4.04
2.42
0.42
-1.84
-4.12
-6.22
-8.00
-9.46
-10.76
-12.16
-13.93
-16.21
-18.97
-21.95
-24.78
-27.12
-28.81
-29.92
-30.69
-31.52
-32.80
-34.79
-37.46
-40.34
-42.57
-42.99
-40.58
-34.84
-26.05
-15.23
-3.91
6.54
15.14
21.57
26.00
28.79
30.32
30.84
30.55
29.69
28.57
27.52
26.75
26.32
26.09
25.81
25.21
24.18
22.79
21.27
19.93
18.96
18.43
18.18
17.95
17.41
16.38
14.80
12.80
10.62
8.49
6.61
4.99
3.57
2.20
0.76
-0.81
-2.50
-4.18
-5.79
-7.22
-8.45
-9.49
-10.42
-11.33
-12.39
-13.69
-15.27
-17.08
-18.91
-20.57
-21.89
-22.80
-23.44
-24.04
-24.94
-26.43
-28.65
-31.48
-34.44
-36.75
-37.43
-35.74
-31.37
-24.65
-16.43
-7.86
0.03
6.57
11.53
15.06
17.42
18.89
19.68
19.93
19.78
19.40
18.96
18.61
18.41
18.40
18.53
18.74
18.94
19.12
19.27
19.41
19.52
19.53
19.28
18.64
17.52
15.99
14.25
12.52
10.98
9.64
8.34
6.83
4.92
2.60
0.04
-2.45
-4.58
-6.16
-7.24
-8.04
-8.86
-9.97
-11.44
-13.19
-15.00
-16.67
-18.07
-19.27
-20.40
-21.65
-23.20
-25.16
-27.55
-30.19
-32.66
-34.25
-34.14
-31.63
-26.48
-19.11
-10.51
-1.94
5.50
11.20
15.07
17.46
18.83
19.57
19.85
19.75
19.31
18.66
18.01
17.56
17.37
17.38
17.41
17.29
16.94
16.43
15.95
15.60
15.37
15.06
14.42
13.27
11.65
9.74
7.84
6.15
4.75
3.57
2.39
1.07
-0.44
-2.01
-3.46
-4.59
-5.40
-6.07
-6.90
-8.20
-10.10
-12.54
-15.26
-17.97
-20.43
-22.55
-24.37
-25.99
-27.56
-29.28
-31.36
-33.97
-37.10
-40.37
-42.95
-43.77
-41.91
-37.00
-29.44
-20.31
-10.96
-2.53
4.35
9.60
13.51
16.38
18.40
19.65
20.26
20.49
20.69
21.21
22.17
23.45
24.72
25.61
25.90
25.59
24.89
24.12
23.53
23.15
22.85
22.40
21.63
20.46
19.01
17.44
15.93
14.55
13.20
11.76
10.12
8.22
6.14
4.00
1.94
0.06
-1.58
-3.00
-4.32
-5.66
-7.17
-8.92
-10.87
-12.88
-14.77
-16.40
-17.76
-18.98
-20.29
-21.98
-24.27
-27.18
-30.46
-33.49
-35.34
-35.03
-31.89
-25.84
-17.55
-8.22
0.80
8.50
14.40
18.55
21.35
23.17
24.25
24.71
24.64
24.21
23.64
23.14
22.78
22.52
22.25
21.87
21.30
20.57
19.70
18.78
17.87
17.03
16.31
15.64
14.91
13.97
12.71
11.13
9.29
7.30
5.20
2.97
0.59
-1.86
-4.11
-5.85
-6.87
-7.20
-7.19
-7.36
-8.16
-9.77
-12.01
-14.49
-16.82
-18.75
-20.31
-21.68
-23.15
-25.00
-27.42
-30.47
-33.94
-37.35
-39.88
-40.61
-38.76
-34.07
-26.90
-18.21
-9.26
-1.21
5.20
9.72
12.47
13.83
14.16
13.80
13.04
12.14
11.31
10.77
10.57
10.67
10.88
10.98
10.77
10.22
9.38
8.43
7.58
6.98
6.59
6.21
5.53
4.33
2.56
0.45
-1.63
-3.39
-4.76
-6.04
-7.80
-10.58
-14.68
-19.98
-25.99
-32.03
-37.42
-41.72
-44.76
-46.65
-47.74
-48.55
-49.59
-51.16
-53.12
-54.71
-54.71
-51.76
-44.93
-34.06
-20.00
-4.34
11.07
24.61
35.31
42.89
47.63
50.08
50.87
50.56
49.64
48.54
47.57
46.79
46.04
44.91
42.98
40.04
36.22
31.98
27.90
24.42
21.63
19.31
17.06
14.57
11.73
8.71
5.79
3.20
1.02
-0.87
-2.68
-4.65
-6.92
-9.49
-12.22
-14.88
-17.26
-19.22
-20.73
-21.93
-23.08
-24.59
-26.89
-30.34
-34.97
-40.28
-45.09
-47.79
-46.78
-41.11
-30.93
-17.62
-3.35
9.64
19.75
26.43
30.07
31.55
31.76
31.30
30.44
29.30
28.04
26.92
26.18
25.89
25.85
25.69
25.03
23.73
21.92
19.99
18.37
17.28
16.65
16.08
15.01
12.91
9.48
4.82
-0.60
-6.11
-11.02
-14.87
-17.59
-19.52
-21.27
-23.49
-26.53
-30.37
-34.64
-38.82
-42.49
-45.55
-48.23
-51.01
-54.41
-58.86
-64.53
-71.18
-78.01
-83.55
-85.87
-83.01
-73.72
-58.06
-37.58
-14.96
6.79
25.27
39.28
48.80
54.59
57.60
58.58
58.04
56.40
54.15
51.93
50.32
49.63
49.82
50.52
51.21
51.51
51.28
50.58
49.61
48.48
47.15
45.43
43.09
40.00
36.24
32.03
27.69
23.50
19.60
16.03
12.79
9.87
7.29
5.02
2.99
1.01
-1.17
-3.75
-6.80
-10.13
-13.44
-16.35
-18.61
-20.18
-21.25
-22.16
-23.36
-25.31
-28.30
-32.36
-37.01
-41.18
-43.32
-41.81
-35.55
-24.53
-9.92
6.20
21.48
34.01
42.76
47.59
49.01
47.81
44.78
40.57
35.83
31.13
27.01
23.85
21.78
20.63
20.02
19.55
18.86
17.81
16.48
15.08
13.83
12.84
12.05
11.24
10.15
8.62
6.65
4.40
2.04
-0.33
-2.78
-5.47
-8.52
-11.82
-15.06
-17.81
-19.73
-20.80
-21.28
-21.64
-22.31
-23.53
-25.21
-27.12
-28.99
-30.64
-32.08
-33.45
-35.02
-37.09
-39.91
-43.59
-47.97
-52.38
-55.72
-56.57
-53.65
-46.28
-34.72
-20.19
-4.58
10.17
22.53
31.72
37.64
40.65
41.26
40.01
37.44
34.08
30.56
27.41
25.04
23.51
22.67
22.13
21.52
20.65
19.51
18.30
17.30
16.75
16.66
16.90
17.15
17.07
16.43
15.17
13.47
11.65
10.02
8.68
7.40
5.62
2.65
-2.04
-8.54
-16.36
-24.45
-31.60
-36.75
-39.33
-39.44
-37.72
-35.13
-32.66
-31.10
-30.82
-31.64
-32.84
-33.19
-31.29
-25.98
-16.79
-4.24
10.25
24.76
37.47
47.12
53.29
56.24
56.59
55.02
52.03
48.03
43.38
38.52
33.95
30.03
26.89
24.37
22.08
19.62
16.78
13.66
10.58
7.94
5.99
4.72
3.80
2.76
1.20
-1.07
-3.93
-7.04
-9.95
-12.38
-14.25
-15.81
-17.48
-19.66
-22.61
-26.24
-30.21
-34.00
-37.19
-39.54
-41.09
-42.17
-43.16
-44.48
-46.39
-48.90
-51.62
-53.82
-54.48
-52.58
-47.47
-39.12
-28.27
-16.17
-4.23
6.38
14.99
21.45
25.93
28.71
30.08
30.30
29.73
28.79
27.95
27.56
27.75
28.42
29.25
29.93
30.24
30.12
29.71
29.14
28.54
27.85
26.91
25.47
23.37
20.59
17.29
13.80
10.44
7.40
4.64
1.93
-1.05
-4.54
-8.59
-13.02
-17.51
-21.67
-25.22
-28.08
-30.34
-32.31
-34.39
-37.02
-40.46
-44.61
-48.86
-52.10
-52.92
-50.13
-43.21
-32.57
-19.54
-5.89
6.68
17.00
24.62
29.71
32.72
34.11
34.25
33.41
31.90
30.08
28.33
26.94
26.00
25.44
25.05
24.61
24.00
23.21
22.36
21.56
20.89
20.34
19.82
19.13
18.12
16.65
14.65
12.21
9.50
6.76
4.23
2.02
0.12
-1.58
-3.25
-4.95
-6.65
-8.26
-9.67
-10.93
-12.16
-13.51
-15.09
-16.87
-18.80
-20.82
-22.98
-25.32
-27.79
-30.05
-31.48
-31.31
-28.94
-24.28
-17.76
-10.32
-2.98
3.38
8.38
12.01
14.54
16.23
17.22
17.55
17.24
16.41
15.35
14.38
13.77
13.56
13.62
13.71
13.62
13.28
12.70
11.99
11.22
10.37
9.39
8.26
7.00
5.68
4.34
2.98
1.59
0.16
-1.28
-2.66
-3.86
-4.85
-5.70
-6.58
-7.67
-9.12
-10.93
-13.03
-15.23
-17.35
-19.22
-20.78
-22.02
-22.97
-23.68
-24.12
-24.17
-23.61
-22.20
-19.78
-16.33
-12.08
-7.35
-2.59
1.81
5.54
8.44
10.48
11.76
12.43
12.65
12.59
12.33
11.92
11.37
10.70
9.98
9.28
8.68
8.20
7.83
7.56
7.41
7.39
7.51
7.66
7.58
7.01
5.72
3.72
1.27
-1.20
-3.27
-4.70
-5.52
-6.00
-6.47
-7.22
-8.32
-9.72
-11.26
-12.81
-14.32
-15.83
-17.46
-19.30
-21.45
-23.95
-26.72
-29.56
-32.06
-33.59
-33.49
-31.28
-26.83
-20.54
-13.21
-5.84
0.73
5.97
9.81
12.44
14.18
15.28
15.84
15.89
15.46
14.72
13.90
13.24
12.87
12.73
12.64
12.42
11.96
11.30
10.59
9.99
9.53
9.15
8.67
7.89
6.70
5.10
3.25
1.36
-0.42
-2.02
-3.50
-5.00
-6.68
-8.56
-10.62
-12.72
-14.77
-16.69
-18.50
-20.20
-21.83
-23.42
-25.05
-26.86
-29.04
-31.65
-34.50
-37.05
-38.48
-37.96
-34.91
-29.29
-21.71
-13.17
-4.80
2.56
8.53
13.21
16.94
19.99
22.43
24.14
24.93
24.77
23.86
22.57
21.34
20.43
19.93
19.67
19.45
19.06
18.46
17.69
16.88
16.07
15.22
14.14
12.64
10.57
8.00
5.12
2.23
-0.44
-2.81
-5.02
-7.28
-9.78
-12.61
-15.65
-18.67
-21.43
-23.79
-25.73
-27.42
-29.15
-31.26
-34.05
-37.63
-41.79
-45.86
-48.79
-49.38
-46.60
-40.08
-30.19
-18.10
-5.35
6.58
16.67
24.51
30.23
34.17
36.75
38.25
38.84
38.72
38.10
37.18
36.16
35.10
33.99
32.78
31.48
30.16
28.92
27.84
26.91
26.04
25.11
23.95
22.43
20.49
18.11
15.40
12.49
9.47
6.40
3.22
-0.14
-3.66
-7.19
-10.49
-13.33
-15.69
-17.84
-20.16
-22.99
-26.39
-30.06
-33.55
-36.45
-38.61
-40.23
-41.72
-43.56
-46.14
-49.67
-54.07
-58.96
-63.50
-66.45
-66.34
-61.90
-52.58
-38.94
-22.50
-5.37
10.42
23.55
33.58
40.84
45.98
49.61
52.07
53.49
53.97
53.67
52.89
51.92
50.96
50.04
49.07
47.89
46.44
44.73
42.89
41.04
39.20
37.30
35.21
32.84
30.15
27.23
24.21
21.19
18.25
15.42
12.76
10.30
8.16
6.37
4.94
3.79
2.79
1.80
0.71
-0.54
-1.91
-3.31
-4.63
-5.77
-6.75
-7.71
-8.82
-10.25
-12.02
-14.04
-16.07
-17.89
-19.40
-20.59
-21.63
-22.70
-23.94
-25.49
-27.39
-29.60
-32.06
-34.68
-37.29
-39.78
-42.00
-43.91
-45.60
-47.34
-49.52
-52.44
-56.08
-59.79
-62.42
-62.55
-59.05
-51.58
-40.77
-28.03
-14.98
-2.90
7.60
16.51
24.13
30.72
36.30
40.73
43.87
45.73
46.54
46.61
46.21
45.51
44.61
43.52
42.33
41.16
40.13
39.28
38.56
37.81
36.86
35.57
33.87
31.80
29.43
26.90
24.34
21.89
19.64
17.61
15.71
13.77
11.64
9.23
6.65
4.13
1.90
0.11
-1.23
-2.24
-3.06
-3.80
-4.50
-5.18
-5.88
-6.72
-7.76
-9.05
-10.47
-11.87
-13.03
-13.85
-14.42
-14.99
-15.91
-17.50
-19.87
-22.91
-26.28
-29.60
-32.52
-34.88
-36.73
-38.27
-39.81
-41.71
-44.24
-47.49
-51.15
-54.42
-56.12
-55.07
-50.48
-42.38
-31.64
-19.67
-8.01
2.27
10.70
17.41
22.82
27.38
31.33
34.70
37.45
39.49
40.81
41.45
41.45
40.89
39.88
38.53
37.00
35.45
34.03
32.82
31.83
30.97
30.10
29.09
27.79
26.15
24.19
21.99
19.70
17.45
15.34
13.42
11.71
10.19
8.83
7.54
6.23
4.78
3.15
1.41
-0.31
-1.83
-3.04
-4.00
-4.87
-5.89
-7.21
-8.87
-10.74
-12.67
-14.49
-16.16
-17.73
-19.28
-20.95
-22.79
-24.82
-26.96
-29.10
-31.09
-32.85
-34.31
-35.46
-36.39
-37.29
-38.44
-40.13
-42.50
-45.35
-47.96
-49.29
-48.21
-44.06
-36.89
-27.57
-17.43
-7.77
0.56
7.42
13.06
17.92
22.25
26.01
29.03
31.15
32.44
33.12
33.51
33.80
34.00
33.98
33.61
32.89
31.96
31.05
30.30
29.71
29.11
28.21
26.84
24.98
22.83
20.65
18.65
16.89
15.34
13.87
12.43
11.04
9.73
8.57
7.50
6.45
5.35
4.22
3.13
2.17
1.34
0.57
-0.33
-1.50
-3.00
-4.71
-6.41
-7.90
-9.10
-10.06
-10.97
-11.99
-13.22
-14.63
-16.04
-17.30
-18.30
-19.09
-19.82
-20.68
-21.84
-23.39
-25.38
-27.79
-30.48
-33.16
-35.31
-36.30
-35.51
-32.59
-27.64
-21.23
-14.20
-7.43
-1.50
3.37
7.26
10.45
13.12
15.39
17.19
18.46
19.16
19.39
19.31
19.08
18.82
18.56
18.32
18.08
17.84
17.64
17.43
17.20
16.84
16.27
15.47
14.46
13.31
12.06
10.75
9.41
8.12
7.00
6.14
5.59
5.27
5.06
4.80
4.40
3.86
3.25
2.67
2.15
1.67
1.14
0.50
-0.29
-1.21
-2.26
-3.43
-4.66
-5.91
-7.06
-8.02
-8.71
-9.18
-9.55
-10.00
-10.72
-11.79
-13.20
-14.85
-16.61
-18.32
-19.90
-21.31
-22.62
-24.01
-25.66
-27.71
-30.08
-32.44
-34.25
-34.91
-33.95
-31.15
-26.66
-20.90
-14.49
-8.02
-2.01
3.27
7.72
11.41
14.46
16.95
18.89
20.29
21.19
21.73
22.14
22.57
23.09
23.62
23.96
23.96
23.58
22.94
22.27
21.74
21.40
21.15
20.80
20.20
19.28
18.11
16.83
15.61
14.54
13.63
12.82
12.05
11.27
10.55
9.95
9.51
9.22
9.01
8.80
8.60
8.50
8.61
8.99
9.55
10.07
10.31
10.14
9.56
8.76
7.92
7.15
6.47
5.85
5.29
4.84
4.53
4.27
3.80
2.81
1.08
-1.31
-4.05
-6.67
-8.82
-10.43
-11.67
-12.85
-14.14
-15.50
-16.68
-17.45
-17.73
-17.67
-17.55
-17.61
-17.92
-18.30
-18.44
-18.04
-16.99
-15.39
-13.48
-11.51
-9.65
-7.93
-6.34
-4.88
-3.58
-2.54
-1.85
-1.52
-1.42
-1.36
-1.16
-0.75
-0.16
0.48
1.02
1.30
1.23
0.77
-0.02
-1.04
-2.13
-3.15
-3.98
-4.61
-5.08
-5.57
-6.20
-7.04
-8.01
-8.97
-9.68
-10.00
-9.90
-9.49
-8.95
-8.47
-8.17
-8.03
-7.94
-7.73
-7.26
-6.50
-5.54
-4.57
-3.81
-3.43
-3.48
-3.89
-4.47
-5.02
-5.39
-5.47
-5.26
-4.80
-4.16
-3.42
-2.64
-1.89
-1.16
-0.48
0.14
0.65
1.01
1.20
1.24
1.22
1.22
1.34
1.56
1.79
1.90
1.81
1.50
1.07
0.64
0.31
0.13
0.08
0.05
-0.03
-0.22
-0.51
-0.82
-1.05
-1.12
-1.05
-0.94
-0.94
-1.13
-1.54
-2.07
-2.62
-3.12
-3.56
-3.96
-4.33
-4.60
-4.66
-4.38
-3.75
-2.86
-1.91
-1.11
-0.59
-0.38
-0.40
-0.50
-0.53
-0.39
-0.10
0.25
0.53
0.60
0.46
0.14
-0.30
-0.80
-1.31
-1.81
-2.24
-2.53
-2.64
-2.58
-2.43
-2.27
-2.13
-1.96
-1.65
-1.09
-0.28
0.69
1.68
2.59
3.34
3.92
4.34
4.60
4.64
4.45
4.04
3.53
3.08
2.82
2.83
3.03
3.24
3.33
3.23
2.96
2.66
2.42
2.25
2.13
1.98
1.85
1.80
1.94
2.30
2.79
3.23
3.44
3.37
3.04
2.62
2.24
1.99
1.86
1.79
1.68
1.48
1.21
0.90
0.59
0.29
-0.01
-0.35
-0.75
-1.22
-1.76
-2.36
-3.08
-3.90
-4.82
-5.75
-6.60
-7.27
-7.68
-7.86
-7.87
-7.81
-7.67
-7.37
-6.79
-5.83
-4.52
-3.02
-1.53
-0.24
0.76
1.51
2.07
2.56
2.98
3.32
3.50
3.48
3.28
2.96
2.63
2.39
2.27
2.28
2.36
2.44
2.48
2.49
2.51
2.53
2.53
2.44
2.22
1.82
1.24
0.48
-0.44
-1.46
-2.51
-3.47
-4.23
-4.74
-5.05
-5.27
-5.52
-5.86
-6.29
-6.72
-7.10
-7.39
-7.67
-8.01
-8.46
-9.08
-9.82
-10.67
-11.59
-12.58
-13.67
-14.87
-16.15
-17.46
-18.69
-19.68
-20.36
-20.66
-20.58
-20.11
-19.20
-17.72
-15.53
-12.56
-8.85
-4.64
-0.24
3.96
7.66
10.70
13.09
14.90
16.20
17.05
17.44
17.40
17.06
16.59
16.22
16.09
16.23
16.58
17.01
17.45
17.83
18.13
18.27
18.16
17.73
16.95
15.90
14.67
13.38
12.13
10.92
9.71
8.45
7.06
5.52
3.90
2.32
0.94
-0.13
-0.89
-1.49
-2.17
-3.14
-4.47
-6.11
-7.90
-9.65
-11.22
-12.52
-13.53
-14.32
-15.10
-16.20
-17.96
-20.54
-23.76
-26.99
-29.34
-29.92
-28.25
-24.41
-18.94
-12.72
-6.52
-0.91
3.85
7.70
10.66
12.78
14.08
14.69
14.77
14.55
14.22
13.93
13.72
13.59
13.54
13.55
13.62
13.76
13.95
14.22
14.53
14.81
14.99
14.95
14.58
13.85
12.76
11.41
9.98
8.63
7.52
6.68
6.04
5.43
4.64
3.57
2.26
0.92
-0.19
-0.91
-1.29
-1.51
-1.86
-2.59
-3.76
-5.33
-7.12
-8.95
-10.63
-12.06
-13.12
-13.80
-14.17
-14.49
-15.12
-16.46
-18.70
-21.66
-24.74
-27.01
-27.57
-25.87
-21.94
-16.37
-10.11
-4.07
1.10
5.18
8.25
10.47
12.01
12.94
13.32
13.29
13.09
12.96
13.04
13.31
13.63
13.83
13.86
13.77
13.68
13.72
13.92
14.17
14.33
14.29
13.96
13.37
12.60
11.72
10.79
9.79
8.69
7.48
6.20
4.95
3.82
2.86
2.02
1.16
0.15
-1.12
-2.67
-4.49
-6.49
-8.59
-10.67
-12.60
-14.23
-15.46
-16.32
-17.01
-17.97
-19.63
-22.26
-25.74
-29.44
-32.34
-33.38
-31.81
-27.50
-21.03
-13.45
-5.88
0.84
6.31
10.55
13.75
16.08
17.60
18.37
18.50
18.23
17.87
17.64
17.61
17.68
17.66
17.43
17.00
16.51
16.14
16.02
16.15
16.46
16.78
16.95
16.80
16.21
15.14
13.67
11.98
10.26
8.66
7.20
5.79
4.25
2.48
0.50
-1.50
-3.30
-4.75
-5.88
-6.89
-8.11
-9.78
-11.95
-14.44
-16.97
-19.22
-21.03
-22.41
-23.51
-24.60
-25.94
-27.82
-30.41
-33.67
-37.16
-40.01
-41.12
-39.49
-34.69
-27.09
-17.80
-8.23
0.32
7.17
12.22
15.82
18.43
20.38
21.79
22.66
23.02
23.04
22.96
22.99
23.22
23.55
23.77
23.69
23.27
22.68
22.18
22.00
22.15
22.42
22.51
22.18
21.34
20.14
18.77
17.39
16.05
14.69
13.27
11.76
10.25
8.81
7.49
6.24
4.99
3.62
2.09
0.46
-1.20
-2.73
-4.04
-5.12
-6.06
-7.03
-8.20
-9.66
-11.36
-13.23
-15.18
-17.14
-19.13
-21.15
-23.18
-25.28
-27.54
-30.14
-33.14
-36.33
-39.04
-40.26
-38.95
-34.56
-27.32
-18.20
-8.62
0.08
7.10
12.29
15.94
18.50
20.27
21.32
21.68
21.40
20.72
20.01
19.57
19.53
19.77
20.03
20.01
19.60
18.89
18.11
17.54
17.28
17.32
17.50
17.57
17.33
16.70
15.71
14.46
13.10
11.73
10.46
9.37
8.45
7.70
7.00
6.22
5.25
4.07
2.71
1.29
-0.10
-1.41
-2.70
-4.00
-5.38
-6.80
-8.20
-9.55
-10.83
-12.08
-13.34
-14.64
-15.96
-17.33
-18.85
-20.67
-23.01
-25.92
-29.20
-32.33
-34.54
-34.99
-33.09
-28.75
-22.41
-14.94
-7.36
-0.51
5.09
9.34
12.38
14.42
15.67
16.30
16.43
16.25
15.98
15.80
15.81
15.99
16.19
16.26
16.03
15.47
14.66
13.76
12.96
12.46
12.31
12.43
12.58
12.45
11.78
10.51
8.80
7.00
5.48
4.44
3.85
3.46
2.92
1.94
0.44
-1.47
-3.52
-5.43
-7.00
-8.21
-9.23
-10.33
-11.77
-13.70
-16.06
-18.63
-21.18
-23.45
-25.28
-26.69
-27.74
-28.72
-30.01
-32.05
-35.10
-38.95
-42.82
-45.47
-45.64
-42.50
-36.12
-27.36
-17.57
-8.13
0.07
6.71
11.90
15.94
19.08
21.49
23.21
24.36
25.07
25.54
25.96
26.43
26.93
27.35
27.54
27.38
26.87
26.12
25.29
24.58
24.06
23.68
23.34
22.88
22.16
21.12
19.75
18.14
16.42
14.73
13.20
11.88
10.74
9.66
8.50
7.17
5.61
3.84
1.90
-0.14
-2.19
-4.14
-5.91
-7.48
-8.92
-10.39
-12.05
-14.00
-16.17
-18.37
-20.39
-21.99
-23.15
-23.95
-24.68
-25.71
-27.40
-29.97
-33.28
-36.77
-39.45
-40.21
-38.15
-33.00
-25.25
-15.96
-6.46
2.17
9.29
14.76
18.74
21.45
23.09
23.79
23.78
23.35
22.86
22.57
22.57
22.74
22.88
22.80
22.40
21.79
21.13
20.55
20.08
19.64
19.10
18.34
17.32
16.05
14.59
13.03
11.46
10.02
8.83
7.94
7.29
6.63
5.70
4.28
2.38
0.27
-1.67
-3.14
-4.06
-4.68
-5.43
-6.68
-8.62
-11.14
-13.95
-16.70
-19.19
-21.33
-23.18
-24.90
-26.65
-28.68
-31.22
-34.35
-37.87
-41.09
-43.00
-42.51
-38.97
-32.44
-23.75
-14.23
-5.19
2.47
8.45
12.91
16.17
18.48
19.94
20.57
20.53
20.12
19.73
19.63
19.89
20.29
20.58
20.55
20.21
19.72
19.31
19.09
18.99
18.87
18.57
17.99
17.12
15.99
14.57
12.89
10.97
8.93
6.93
5.08
3.40
1.78
0.06
-1.90
-4.05
-6.22
-8.15
-9.64
-10.69
-11.53
-12.54
-14.12
-16.46
-19.47
-22.83
-26.08
-28.84
-30.99
-32.71
-34.37
-36.44
-39.32
-43.17
-47.77
-52.46
-56.14
-57.51
-55.41
-49.31
-39.51
-27.25
-14.23
-2.17
7.75
15.10
20.14
23.48
25.74
27.32
28.41
29.04
29.25
29.17
28.97
28.79
28.70
28.64
28.46
28.09
27.56
27.01
26.64
26.55
26.70
26.82
26.57
25.65
23.95
21.57
18.81
16.02
13.53
11.53
10.02
8.86
7.79
6.53
4.86
2.67
0.04
-2.82
-5.68
-8.30
-10.58
-12.56
-14.39
-16.31
-18.55
-21.26
-24.42
-27.88
-31.33
-34.45
-37.01
-38.97
-40.54
-42.20
-44.51
-47.93
-52.50
-57.59
-61.88
-63.57
-61.01
-53.33
-40.86
-25.15
-8.49
6.88
19.42
28.59
34.69
38.45
40.61
41.70
42.04
41.84
41.36
40.87
40.56
40.53
40.74
41.03
41.20
41.08
40.60
39.82
38.93
38.12
37.54
37.14
36.71
35.91
34.46
32.28
29.47
26.37
23.31
20.52
18.00
15.60
13.10
10.37
7.43
4.43
1.59
-0.93
-3.06
-4.89
-6.59
-8.40
-10.56
-13.18
-16.31
-19.80
-23.40
-26.82
-29.82
-32.25
-34.19
-35.85
-37.59
-39.84
-42.94
-47.03
-51.78
-56.29
-59.15
-58.88
-54.42
-45.63
-33.47
-19.65
-6.11
5.60
14.75
21.33
25.83
28.82
30.76
31.89
32.38
32.43
32.26
32.11
32.08
32.15
32.16
31.94
31.33
30.40
29.30
28.31
27.61
27.25
27.07
26.75
26.01
24.67
22.77
20.53
18.26
16.20
14.41
12.80
11.12
9.23
7.16
5.10
3.35
2.06
1.17
0.35
-0.80
-2.59
-5.04
-7.84
-10.53
-12.70
-14.23
-15.35
-16.51
-18.15
-20.54
-23.60
-27.04
-30.50
-33.68
-36.48
-38.96
-41.25
-43.47
-45.83
-48.60
-52.13
-56.51
-61.27
-65.21
-66.58
-63.70
-55.75
-43.18
-27.75
-11.81
2.46
13.84
22.21
28.21
32.65
36.07
38.58
40.12
40.70
40.58
40.20
39.93
39.90
39.94
39.73
38.97
37.63
35.92
34.17
32.73
31.66
30.84
29.97
28.72
26.90
24.54
21.83
19.07
16.58
14.50
12.81
11.30
9.70
7.83
5.70
3.43
1.24
-0.74
-2.54
-4.31
-6.21
-8.29
-10.48
-12.57
-14.35
-15.77
-16.91
-18.01
-19.40
-21.30
-23.78
-26.74
-29.92
-33.05
-35.90
-38.42
-40.66
-42.84
-45.23
-48.15
-51.82
-56.12
-60.39
-63.37
-63.47
-59.26
-50.11
-36.56
-20.29
-3.61
11.35
23.23
31.67
37.15
40.46
42.32
43.16
43.13
42.35
41.05
39.52
38.09
36.95
36.11
35.46
34.84
34.16
33.45
32.83
32.42
32.22
32.15
31.93
31.26
29.87
27.70
24.89
21.77
18.69
15.93
13.57
11.50
9.53
7.48
5.24
2.79
0.10
-2.83
-5.94
-9.08
-12.03
-14.55
-16.56
-18.18
-19.80
-21.85
-24.61
-28.06
-31.83
-35.43
-38.43
-40.68
-42.32
-43.70
-45.29
-47.57
-50.86
-55.26
-60.29
-64.92
-67.54
-66.48
-60.58
-49.78
-35.19
-18.83
-2.90
10.93
21.82
29.76
35.23
38.79
40.88
41.82
41.91
41.48
40.88
40.40
40.13
40.02
39.89
39.58
38.98
38.11
37.08
36.03
35.07
34.22
33.42
32.51
31.34
29.76
27.73
25.31
22.66
19.94
17.31
14.81
12.41
10.06
7.76
5.58
3.65
2.06
0.69
-0.69
-2.36
-4.50
-7.03
-9.66
-12.02
-13.90
-15.39
-16.86
-18.70
-21.15
-24.16
-27.42
-30.56
-33.28
-35.51
-37.30
-38.87
-40.42
-42.26
-44.71
-48.05
-52.26
-56.73
-60.21
-60.98
-57.50
-48.98
-35.88
-19.86
-3.26
11.61
23.27
31.27
36.08
38.66
39.91
40.39
40.35
39.89
39.16
38.43
37.97
37.92
38.16
38.28
37.88
36.69
34.83
32.72
30.87
29.61
28.93
28.50
27.83
26.60
24.74
22.45
20.03
17.68
15.41
13.08
10.61
8.03
5.56
3.41
1.68
0.23
-1.22
-2.91
-4.94
-7.17
-9.30
-11.08
-12.38
-13.30
-14.07
-14.94
-16.09
-17.58
-19.35
-21.29
-23.26
-25.12
-26.80
-28.29
-29.68
-31.13
-32.88
-35.18
-38.17
-41.70
-45.18
-47.61
-47.81
-44.84
-38.38
-28.97
-17.85
-6.56
3.61
11.96
18.33
22.99
26.28
28.39
29.41
29.44
28.72
27.66
26.69
26.04
25.74
25.61
25.35
24.77
23.83
22.68
21.59
20.76
20.28
20.02
19.77
19.24
18.24
16.75
14.89
12.85
10.88
9.16
7.77
6.68
5.75
4.81
3.65
2.15
0.29
-1.74
-3.68
-5.24
-6.25
-6.79
-7.15
-7.73
-8.87
-10.68
-13.02
-15.59
-18.02
-20.05
-21.59
-22.68
-23.51
-24.34
-25.53
-27.43
-30.21
-33.63
-36.91
-38.88
-38.31
-34.46
-27.43
-18.19
-8.22
1.05
8.73
14.61
18.97
22.30
25.00
27.25
29.10
30.56
31.66
32.49
33.09
33.45
33.56
33.38
32.89
32.14
31.21
30.21
29.27
28.45
27.74
27.04
26.21
25.12
23.72
22.09
20.41
18.82
17.45
16.27
15.23
14.19
13.04
11.74
10.25
8.58
6.76
4.85
2.90
1.02
-0.72
-2.26
-3.57
-4.68
-5.65
-6.56
-7.48
-8.53
-9.78
-11.24
-12.89
-14.60
-16.19
-17.47
-18.28
-18.60
-18.57
-18.40
-18.36
-18.60
-19.05
-19.54
-19.77
-19.52
-18.69
-17.41
-15.86
-14.25
-12.74
-11.36
-10.11
-8.97
-7.93
-7.01
-6.20
-5.53
-4.94
-4.38
-3.78
-3.10
-2.37
-1.68
-1.11
-0.72
-0.51
-0.42
-0.38
-0.37
-0.42
-0.55
-0.79
-1.10
-1.44
-1.81
-2.26
-2.87
-3.70
-4.70
-5.74
-6.64
-7.24
-7.42
-7.23
-6.75
-6.10
-5.41
-4.81
-4.38
-4.19
-4.21
-4.39
-4.69
-5.10
-5.67
-6.43
-7.42
-8.52
-9.57
-10.35
-10.71
-10.63
-10.23
-9.71
-9.30
-9.10
-9.08
-9.10
-8.97
-8.57
-7.91
-7.08
-6.25
-5.49
-4.75
-3.90
-2.87
-1.65
-0.38
0.78
1.73
2.43
2.93
3.29
3.54
3.66
3.67
3.63
3.62
3.74
3.98
4.24
4.36
4.21
3.74
3.05
2.28
1.60
1.11
0.79
0.54
0.26
-0.10
-0.51
-0.88
-1.14
-1.29
-1.43
-1.67
-2.11
-2.78
-3.58
-4.41
-5.16
-5.78
-6.30
-6.76
-7.23
-7.72
-8.21
-8.62
-8.88
-8.96
-8.88
-8.67
-8.37
-7.95
-7.37
-6.61
-5.64
-4.59
-3.56
-2.67
-1.95
-1.31
-0.63
0.16
1.06
1.96
2.71
3.18
3.35
3.29
3.13
2.97
2.89
2.88
2.88
2.84
2.73
2.54
2.33
2.12
1.99
1.91
1.88
1.82
1.68
1.42
1.08
0.75
0.53
0.53
0.72
1.05
1.37
1.55
1.51
1.23
0.75
0.16
-0.47
-1.04
-1.48
-1.76
-1.84
-1.74
-1.50
-1.24
-1.09
-1.19
-1.64
-2.41
-3.41
-4.45
-5.33
-5.90
-6.10
-5.95
-5.55
-5.01
-4.42
-3.81
-3.22
-2.69
-2.30
-2.07
-2.01
-2.00
-1.90
-1.56
-0.94
-0.10
0.81
1.62
2.24
2.69
3.03
3.33
3.60
3.81
3.88
3.74
3.32
2.65
1.80
0.89
0.05
-0.66
-1.25
-1.78
-2.33
-2.94
-3.57
-4.13
-4.50
-4.58
-4.34
-3.84
-3.19
-2.56
-2.06
-1.77
-1.66
-1.68
-1.72
-1.80
-1.97
-2.33
-2.91
-3.63
-4.35
-4.88
-5.16
-5.25
-5.28
-5.42
-5.71
-6.11
-6.49
-6.78
-6.94
-7.05
-7.21
-7.46
-7.76
-7.99
-7.99
-7.67
-7.02
-6.13
-5.15
-4.18
-3.26
-2.38
-1.53
-0.75
-0.12
0.28
0.44
0.48
0.57
0.87
1.42
2.12
2.76
3.14
3.11
2.71
2.07
1.38
0.84
0.61
0.78
1.42
2.50
3.94
5.59
7.23
8.66
9.74
10.46
10.89
11.15
11.32
11.45
11.58
11.74
11.97
12.24
12.51
12.65
12.57
12.22
11.61
10.79
9.78
8.58
7.14
5.49
3.68
1.85
0.11
-1.46
-2.83
-4.09
-5.28
-6.46
-7.61
-8.71
-9.66
-10.34
-10.64
-10.47
-9.81
-8.73
-7.41
-6.02
-4.75
-3.69
-2.87
-2.28
-1.93
-1.78
-1.80
-1.88
-1.93
-1.85
-1.63
-1.38
-1.25
-1.33
-1.63
-2.02
-2.30
-2.37
-2.23
-1.98
-1.71
-1.51
-1.31
-1.03
-0.64
-0.18
0.25
0.58
0.76
0.81
0.75
0.61
0.39
0.08
-0.30
-0.72
-1.14
-1.53
-1.92
-2.37
-2.96
-3.79
-4.92
-6.36
-7.99
-9.61
-11.01
-12.05
-12.77
-13.41
-14.31
-15.71
-17.67
-19.94
-22.10
-23.64
-24.16
-23.48
-21.60
-18.72
-15.09
-11.00
-6.76
-2.66
1.07
4.26
6.83
8.81
10.30
11.45
12.36
13.16
13.89
14.58
15.24
15.80
16.18
16.29
16.12
15.75
15.32
14.97
14.77
14.63
14.36
13.81
12.90
11.70
10.41
9.18
8.12
7.21
6.35
5.36
4.09
2.43
0.37
-1.95
-4.32
-6.52
-8.41
-10.06
-11.69
-13.55
-15.80
-18.40
-21.15
-23.75
-26.03
-27.94
-29.61
-31.25
-33.09
-35.32
-38.09
-41.47
-45.32
-49.14
-52.09
-53.06
-51.09
-45.73
-37.32
-26.85
-15.70
-5.15
4.01
11.57
17.72
22.75
26.83
29.94
32.07
33.32
34.00
34.54
35.30
36.39
37.60
38.61
39.09
38.96
38.33
37.50
36.72
36.09
35.49
34.64
33.30
31.35
28.87
26.15
23.51
21.19
19.28
17.63
16.01
14.14
11.85
9.17
6.27
3.41
0.82
-1.38
-3.22
-4.85
-6.46
-8.25
-10.35
-12.75
-15.32
-17.85
-20.15
-22.11
-23.78
-25.38
-27.25
-29.71
-32.93
-36.72
-40.50
-43.28
-44.04
-41.96
-36.79
-28.97
-19.45
-9.45
0.00
8.20
14.85
19.95
23.59
25.89
26.96
27.02
26.36
25.35
24.30
23.45
22.90
22.64
22.60
22.61
22.53
22.29
21.88
21.42
21.09
20.98
21.05
21.06
20.65
19.60
17.90
15.84
13.86
12.27
11.18
10.38
9.52
8.21
6.30
3.85
1.11
-1.63
-4.13
-6.30
-8.22
-10.03
-11.90
-13.98
-16.27
-18.76
-21.33
-23.90
-26.42
-28.86
-31.22
-33.50
-35.79
-38.29
-41.32
-45.10
-49.49
-53.70
-56.37
-55.91
-51.18
-41.96
-29.26
-14.91
-0.91
11.19
20.71
27.75
32.80
36.33
38.58
39.64
39.63
38.90
37.93
37.18
36.91
37.04
37.26
37.17
36.55
35.40
33.96
32.56
31.46
30.71
30.17
29.56
28.65
27.30
25.57
23.59
21.56
19.60
17.74
15.90
13.97
11.87
9.60
7.28
5.11
3.28
1.90
0.89
0.03
-0.96
-2.31
-4.02
-5.94
-7.81
-9.41
-10.69
-11.78
-12.90
-14.28
-16.00
-17.97
-20.05
-22.06
-23.89
-25.54
-27.13
-28.82
-30.78
-33.24
-36.31
-39.95
-43.78
-47.04
-48.65
-47.57
-43.11
-35.34
-25.13
-13.88
-3.06
6.26
13.63
19.13
23.13
25.94
27.74
28.57
28.51
27.81
26.82
25.93
25.31
24.93
24.56
23.99
23.17
22.27
21.56
21.30
21.52
22.01
22.37
22.22
21.35
19.77
17.74
15.61
13.65
11.99
10.60
9.33
8.04
6.70
5.36
4.14
3.12
2.28
1.50
0.60
-0.52
-1.91
-3.46
-5.00
-6.38
-7.51
-8.40
-9.18
-9.99
-10.97
-12.15
-13.47
-14.75
-15.88
-16.78
-17.47
-18.04
-18.63
-19.43
-20.65
-22.52
-25.20
-28.66
-32.55
-36.17
-38.64
-39.12
-37.18
-32.90
-26.86
-19.91
-13.00
-6.78
-1.63
2.36
5.37
7.66
9.46
10.98
12.27
13.33
14.12
14.65
14.96
15.18
15.48
15.97
16.70
17.65
18.72
19.79
20.74
21.40
21.68
21.50
20.83
19.71
18.26
16.64
15.09
13.72
12.61
11.73
10.98
10.22
9.38
8.41
7.23
5.81
4.11
2.15
0.08
-1.93
-3.70
-5.18
-6.50
-7.92
-9.71
-11.98
-14.64
-17.38
-19.85
-21.82
-23.22
-24.16
-24.88
-25.74
-27.07
-29.17
-32.13
-35.70
-39.18
-41.53
-41.63
-38.71
-32.61
-23.99
-14.02
-4.08
4.68
11.64
16.69
20.08
22.26
23.65
24.53
25.10
25.45
25.64
25.69
25.63
25.45
25.14
24.67
24.05
23.30
22.54
21.89
21.51
21.41
21.44
21.33
20.79
19.62
17.91
15.93
14.10
12.72
11.82
11.19
10.47
9.36
7.81
6.04
4.35
3.01
2.07
1.39
0.72
-0.14
-1.28
-2.66
-4.14
-5.59
-6.91
-8.06
-9.07
-10.06
-11.17
-12.53
-14.19
-16.12
-18.19
-20.23
-22.08
-23.68
-25.04
-26.29
-27.65
-29.39
-31.75
-34.75
-38.10
-41.08
-42.74
-42.19
-38.90
-32.98
-25.17
-16.54
-8.16
-0.81
5.17
9.80
13.30
15.89
17.73
18.89
19.43
19.43
19.08
18.59
18.17
17.89
17.74
17.56
17.19
16.56
15.72
14.89
14.29
14.08
14.21
14.52
14.77
14.79
14.55
14.14
13.67
13.18
12.59
11.75
10.56
9.08
7.52
6.18
5.30
4.90
4.78
4.64
4.13
3.12
1.67
0.01
-1.53
-2.75
-3.61
-4.29
-5.06
-6.15
-7.65
-9.46
-11.37
-13.16
-14.67
-15.83
-16.66
-17.25
-17.74
-18.44
-19.66
-21.67
-24.39
-27.33
-29.60
-30.21
-28.48
-24.31
-18.20
-11.01
-3.69
3.12
9.08
14.09
18.15
21.24
23.31
24.38
24.61
24.29
23.79
23.38
23.18
23.16
23.16
23.05
22.74
22.26
21.72
21.24
20.89
20.59
20.20
19.56
18.57
17.22
15.56
13.65
11.51
9.13
6.56
3.90
1.27
-1.23
-3.61
-6.01
-8.66
-11.71
-15.17
-18.77
-22.14
-24.94
-27.05
-28.59
-29.86
-31.20
-32.80
-34.66
-36.70
-38.84
-41.04
-43.37
-45.89
-48.63
-51.57
-54.75
-58.23
-62.10
-66.39
-70.89
-75.10
-78.30
-79.75
-78.86
-75.38
-69.45
-61.44
-51.86
-41.20
-29.86
-18.23
-6.75
4.06
13.60
21.33
27.02
30.77
33.06
34.55
35.86
37.34
39.02
40.74
42.27
43.43
44.21
44.70
45.03
45.33
45.71
46.18
46.72
47.16
47.34
47.13
46.51
45.64
44.72
43.98
43.45
42.99
42.31
41.12
39.22
36.62
33.52
30.16
26.75
23.32
19.71
15.65
10.96
5.58
-0.35
-6.56
-12.85
-19.09
-25.34
-31.75
-38.48
-45.65
-53.25
-61.03
-68.27
-73.83
-76.28
-74.38
-67.62
-56.53
-42.64
-28.04
-14.64
-3.69
4.45
10.11
13.92
16.44
18.01
18.82
19.04
18.94
18.81
18.92
19.45
20.37
21.57
22.83
23.92
24.69
25.08
25.09
24.79
24.20
23.31
22.02
20.25
17.97
15.22
12.14
8.82
5.33
1.64
-2.29
-6.42
-10.65
-14.78
-18.66
-22.27
-25.76
-29.33
-33.15
-37.26
-41.46
-45.49
-49.10
-52.26
-55.26
-58.60
-62.92
-68.69
-75.97
-84.13
-91.76
-96.86
-97.31
-91.58
-79.31
-61.54
-40.48
-18.83
0.96
17.32
29.73
38.58
44.74
49.15
52.55
55.40
57.99
60.56
63.30
66.40
69.96
73.91
77.97
81.71
84.68
86.67
87.73
88.11
88.09
87.78
86.98
85.27
82.29
77.92
72.48
66.57
60.89
55.94
51.85
48.29
44.74
40.69
35.91
30.48
24.76
19.13
13.88
9.03
4.42
-0.15
-4.81
-9.54
-14.18
-18.54
-22.45
-25.86
-28.78
-31.35
-33.80
-36.48
-39.76
-43.88
-48.75
-53.73
-57.72
-59.32
-57.40
-51.50
-42.06
-30.30
-17.81
-6.06
3.98
11.95
17.94
22.28
25.30
27.33
28.66
29.59
30.36
31.14
31.92
32.57
32.84
32.49
31.37
29.48
27.04
24.36
21.78
19.57
17.80
16.31
14.86
13.19
11.17
8.82
6.29
3.81
1.54
-0.41
-2.10
-3.66
-5.27
-7.06
-9.02
-11.03
-12.87
-14.44
-15.79
-17.17
-18.89
-21.16
-23.95
-26.98
-29.85
-32.21
-33.96
-35.23
-36.29
-37.45
-38.98
-41.10
-43.93
-47.39
-51.09
-54.16
-55.44
-53.75
-48.42
-39.59
-28.30
-16.10
-4.52
5.36
13.14
18.98
23.28
26.44
28.69
30.19
31.11
31.68
32.13
32.64
33.21
33.68
33.77
33.24
31.96
29.95
27.37
24.49
21.55
18.67
15.91
13.23
10.60
8.03
5.54
3.17
0.93
-1.23
-3.35
-5.38
-7.19
-8.63
-9.69
-10.52
-11.48
-12.93
-15.09
-17.85
-20.86
-23.65
-25.91
-27.54
-28.74
-29.87
-31.34
-33.51
-36.61
-40.58
-44.97
-48.79
-50.69
-49.33
-43.92
-34.61
-22.51
-9.39
2.99
13.39
21.36
27.11
31.14
33.95
35.77
36.73
36.90
36.48
35.75
34.98
34.31
33.73
33.07
32.09
30.60
28.57
26.16
23.65
21.36
19.48
18.00
16.72
15.30
13.52
11.35
8.98
6.74
4.87
3.40
2.16
0.85
-0.80
-2.81
-5.00
-7.06
-8.73
-9.91
-10.76
-11.60
-12.80
-14.61
-17.04
-19.90
-22.87
-25.62
-27.98
-29.94
-31.72
-33.68
-36.21
-39.57
-43.76
-48.37
-52.57
-55.36
-55.76
-53.15
-47.44
-39.17
-29.30
-18.92
-8.98
-0.13
7.32
13.29
17.79
20.84
22.55
23.13
22.96
22.50
22.13
22.02
22.08
22.05
21.62
20.65
19.24
17.64
16.14
14.92
14.00
13.18
12.22
10.92
9.26
7.41
5.60
4.04
2.69
1.29
-0.61
-3.45
-7.40
-12.31
-17.71
-23.02
-27.82
-32.01
-35.86
-39.89
-44.65
-50.47
-57.27
-64.59
-71.70
-77.93
-82.90
-86.67
-89.74
-92.90
-97.05
-102.86
-110.52
-119.28
-127.29
-131.72
-129.43
-118.11
-97.31
-68.91
-36.75
-5.38
21.38
41.48
54.87
62.87
67.20
69.28
69.94
69.65
68.82
67.97
67.58
67.87
68.63
69.35
69.43
68.52
66.68
64.33
62.04
60.26
59.11
58.35
57.54
56.24
54.16
51.31
47.92
44.36
40.92
37.70
34.56
31.22
27.40
22.98
18.11
13.08
8.20
3.53
-1.10
-6.03
-11.47
-17.43
-23.55
-29.36
-34.47
-38.81
-42.65
-46.54
-51.15
-57.01
-64.32
-72.69
-80.93
-87.10
-88.92
-84.48
-73.01
-55.32
-33.67
-11.08
9.57
26.33
38.50
46.40
50.91
52.91
53.12
52.02
50.05
47.66
45.37
43.60
42.55
42.22
42.35
42.61
42.72
42.54
42.05
41.34
40.49
39.54
38.44
37.03
35.14
32.64
29.48
25.74
21.60
17.29
13.01
8.87
4.89
1.03
-2.82
-6.82
-11.15
-15.99
-21.39
-27.19
-33.06
-38.60
-43.49
-47.63
-51.27
-54.83
-58.86
-63.89
-70.23
-77.74
-85.58
-92.07
-94.89
-91.72
-81.04
-62.87
-39.02
-12.56
13.12
35.29
52.45
64.44
71.91
75.90
77.36
77.14
75.96
74.50
73.27
72.53
72.18
71.88
71.18
69.76
67.52
64.65
61.49
58.45
55.77
53.47
51.31
48.90
45.87
42.08
37.62
32.82
28.01
23.41
19.02
14.63
10.03
5.11
0.02
-4.93
-9.35
-13.02
-15.97
-18.54
-21.25
-24.61
-28.91
-34.03
-39.54
-44.82
-49.35
-52.98
-55.95
-58.85
-62.42
-67.29
-73.76
-81.45
-89.16
-94.87
-96.18
-91.00
-78.36
-59.01
-35.31
-10.56
12.03
30.28
43.46
52.06
57.22
60.09
61.47
61.77
61.21
60.07
58.69
57.43
56.57
56.14
55.98
55.81
55.36
54.56
53.52
52.49
51.74
51.33
51.05
50.49
49.12
46.58
42.76
37.92
32.53
27.22
22.43
18.37
14.87
11.55
7.99
3.94
-0.55
-5.16
-9.37
-12.78
-15.25
-17.00
-18.59
-20.67
-23.70
-27.80
-32.64
-37.64
-42.22
-45.96
-48.83
-51.16
-53.50
-56.43
-60.47
-65.82
-72.22
-78.73
-83.73
-85.13
-81.02
-70.32
-53.42
-32.23
-9.62
11.34
28.36
40.36
47.52
50.80
51.40
50.38
48.43
46.01
43.42
40.94
38.83
37.22
36.14
35.49
35.04
34.58
34.00
33.30
32.63
32.09
31.67
31.19
30.34
28.84
26.60
23.71
20.43
17.00
13.56
10.07
6.44
2.64
-1.25
-4.97
-8.26
-11.02
-13.37
-15.65
-18.26
-21.46
-25.23
-29.31
-33.33
-36.96
-40.13
-42.92
-45.61
-48.54
-52.04
-56.38
-61.61
-67.29
-72.29
-74.86
-73.00
-65.24
-51.33
-32.60
-11.61
8.64
25.63
38.06
45.82
49.72
50.79
49.87
47.54
44.23
40.40
36.62
33.44
31.23
29.99
29.49
29.26
28.97
28.45
27.79
27.22
26.92
26.90
26.94
26.66
25.69
23.86
21.27
18.20
15.04
12.02
9.18
6.36
3.38
0.14
-3.29
-6.67
-9.82
-12.67
-15.40
-18.33
-21.75
-25.77
-30.20
-34.68
-38.77
-42.21
-44.98
-47.35
-49.79
-52.80
-56.83
-62.06
-68.16
-74.05
-77.92
-77.62
-71.37
-58.62
-40.38
-19.11
2.09
20.52
34.58
43.99
49.43
51.92
52.32
51.19
48.95
46.06
43.09
40.60
38.97
38.24
38.14
38.21
38.01
37.33
36.26
35.12
34.27
33.88
33.80
33.57
32.66
30.69
27.67
23.98
20.18
16.73
13.74
11.00
8.12
4.81
1.05
-2.88
-6.57
-9.73
-12.36
-14.81
-17.58
-21.10
-25.52
-30.59
-35.77
-40.48
-44.29
-47.12
-49.21
-51.06
-53.29
-56.50
-61.11
-67.07
-73.68
-79.37
-81.93
-79.10
-69.48
-53.21
-32.15
-9.36
11.85
29.03
41.10
48.37
51.90
52.88
52.18
50.30
47.60
44.52
