1610866662.00
64.000000
-0.00
-0.00
-0.00
-0.00
-0.00
-0.00
-0.00
-0.00
-0.00
-0.00
0.00
0.01
0.01
-0.00
-0.03
-0.05
-0.05
0.00
0.13
0.36
0.66
1.01
1.37
1.72
2.06
2.40
2.79
3.24
3.80
4.42
5.06
5.66
6.20
6.68
7.15
7.68
8.31
9.14
10.09
11.04
11.88
12.56
13.14
13.76
14.65
15.96
17.91
20.32
22.90
25.38
27.58
29.57
31.68
34.32
37.81
42.54
48.15
54.10
59.83
64.97
69.58
74.14
79.34
85.71
93.76
103.00
112.62
121.73
129.77
136.75
143.30
150.75
157.77
166.64
177.95
191.79
206.97
220.57
228.25
225.36
208.53
176.87
132.76
80.05
23.07
-34.94
-92.44
-149.16
-205.23
-260.37
-313.74
-363.87
-409.83
-450.91
-486.50
-515.74
-537.23
-549.22
-549.96
-538.37
-514.21
-478.67
-433.88
-382.45
-327.02
-269.84
-212.63
-156.66
-102.95
-52.37
-5.90
35.58
71.43
101.35
125.50
144.38
158.70
169.15
176.37
180.75
182.57
182.06
179.51
175.26
169.69
163.22
156.16
148.74
141.13
133.40
125.62
117.86
110.20
102.68
95.36
88.26
81.39
74.75
68.39
62.33
56.61
51.26
46.26
41.56
37.12
32.87
28.81
25.00
21.50
18.41
15.75
13.47
11.42
9.45
7.41
5.29
3.22
1.40
0.04
-0.77
-1.16
-1.40
-1.85
-2.75
-4.13
-5.75
-7.19
-8.06
-8.16
-7.67
-7.03
-6.84
-7.51
-9.11
-11.29
-13.41
-14.86
-15.24
-14.63
-13.46
-12.41
-12.22
-13.53
-16.72
-21.51
-26.69
-30.07
-29.08
-21.78
-7.98
10.43
29.91
46.63
57.87
62.76
62.14
57.60
50.59
41.87
31.78
20.66
9.22
-1.57
-10.76
-17.73
-22.32
-24.55
-24.60
-22.87
-20.12
-17.70
-17.24
-19.92
-25.55
-32.19
-36.62
-35.74
-28.04
-14.48
1.95
17.57
29.64
37.15
40.60
40.96
38.75
33.84
26.03
15.75
4.38
-6.30
-14.90
-20.96
-24.92
-27.38
-28.30
-26.69
-21.22
-11.06
3.16
19.21
33.91
44.49
49.78
50.72
49.87
49.95
52.49
57.06
61.81
64.54
63.87
59.63
52.54
43.31
32.16
19.17
4.47
-10.60
-23.75
-32.59
-35.80
-33.91
-29.08
-24.09
-21.11
-21.01
-23.34
-26.86
-30.37
-33.04
-34.61
-35.13
-34.89
-34.17
-33.30
-32.55
-32.04
-31.67
-31.10
-29.96
-28.06
-25.56
-22.90
-20.50
-18.43
-16.37
-13.85
-10.52
-6.48
-2.24
1.42
3.94
5.16
5.46
5.33
5.07
4.71
4.06
3.07
2.00
1.44
2.01
4.14
7.56
11.43
14.69
16.58
16.99
16.58
16.47
17.63
20.49
24.52
28.44
30.93
31.11
28.92
25.14
21.24
18.08
17.39
20.71
28.78
41.03
55.16
67.53
74.14
72.13
61.02
43.45
24.34
9.42
3.45
8.62
24.03
46.01
69.21
88.03
98.16
97.47
86.39
67.62
45.06
22.78
4.14
-8.79
-15.30
-15.69
-11.09
-3.23
5.72
13.08
16.78
16.00
11.36
4.63
-2.07
-7.07
-9.82
-10.95
-12.69
-16.98
-24.49
-34.41
-44.94
-54.05
-60.28
-63.26
-63.94
-65.70
-72.08
-85.84
-108.43
-139.76
-177.80
-218.29
-255.35
-282.75
-297.52
-298.90
-288.21
-268.14
-242.00
-212.72
-182.28
-151.75
-111.72
-60.71
-4.90
45.13
80.87
99.45
103.35
98.12
90.39
86.26
87.84
94.88
105.32
116.52
126.00
132.46
136.67
139.20
140.74
140.77
139.71
139.15
141.16
146.81
155.67
165.38
172.72
175.27
171.32
161.08
146.12
128.40
107.20
83.19
57.16
30.26
4.21
-19.55
-39.83
-55.89
-67.31
-73.89
-75.11
-70.91
-61.90
-49.34
-35.22
-21.61
-10.05
-1.20
5.00
9.15
11.57
12.08
10.08
4.79
-4.33
-17.29
-33.27
-50.77
-67.84
-82.75
-94.30
-101.86
-105.42
-105.44
-102.75
-98.26
-92.79
-86.73
-80.09
-72.53
-63.52
-52.72
-40.14
-26.29
-12.00
1.75
13.91
23.17
27.87
26.02
15.70
-4.22
-33.32
-69.18
-107.75
-144.23
-174.21
-194.74
-204.56
-203.63
-192.46
-171.47
-141.00
-101.86
-55.93
-6.54
42.08
85.86
122.04
149.89
170.65
186.74
200.70
214.43
228.67
243.00
256.11
266.12
271.09
269.47
260.54
244.64
223.10
198.00
171.82
146.89
124.89
106.38
90.47
75.06
57.36
35.04
7.04
-25.87
-61.27
-95.90
-126.53
-150.69
-167.02
-175.27
-176.18
-171.30
-162.69
-152.40
-141.94
-132.01
-122.52
-113.06
-103.29
-93.26
-83.27
-73.66
-64.58
-55.97
-47.67
-39.63
-31.91
-24.65
-18.03
-12.17
-7.16
-3.10
-0.07
1.84
2.57
2.17
0.81
-1.17
-3.29
-5.04
-5.96
-5.78
-4.50
-2.38
0.19
2.78
5.16
7.26
9.20
11.17
13.34
15.76
18.36
21.01
23.55
25.89
27.99
29.86
31.51
32.90
33.96
34.67
35.05
35.22
35.33
35.50
35.69
35.79
35.64
35.19
34.54
33.82
33.04
32.01
30.36
27.73
23.98
19.33
14.30
9.53
5.56
2.67
0.87
-0.05
-0.46
-0.75
-1.27
-2.24
-3.67
-5.42
-7.26
-8.98
-10.55
-12.07
-13.74
-15.80
-18.44
-21.73
-25.65
-30.01
-34.46
-38.59
-42.02
-44.53
-46.17
-47.15
-47.82
-48.60
-49.94
-52.22
-55.68
-60.22
-65.37
-70.32
-74.19
-76.35
-76.60
-75.09
-72.08
-67.64
-61.60
-53.74
-44.07
-33.07
-21.60
-10.56
-0.59
8.14
15.84
22.81
29.20
34.88
39.58
43.11
45.49
47.01
48.03
48.85
49.55
50.02
50.09
49.67
48.82
47.70
46.51
45.30
43.94
42.20
39.82
36.78
33.26
29.62
26.19
23.15
20.48
18.03
15.67
13.39
11.31
9.55
8.12
6.89
5.69
4.48
3.38
2.67
2.60
3.22
4.33
5.59
6.64
7.28
7.45
7.21
6.61
5.68
4.45
2.99
1.50
0.22
-0.69
-1.22
-1.58
-2.11
-3.17
-4.93
-7.27
-9.82
-12.07
-13.53
-13.93
-13.31
-11.97
-10.38
-9.01
-8.20
-8.10
-8.68
-9.80
-11.19
-12.54
-13.53
-13.90
-13.54
-12.56
-11.20
-9.80
-8.65
-7.92
-7.58
-7.52
-7.54
-7.43
-7.00
-6.04
-4.46
-2.28
0.31
2.96
5.24
6.86
7.67
7.77
7.40
6.77
6.05
5.27
4.35
3.18
1.73
0.07
-1.62
-3.12
-4.26
-4.97
-5.29
-5.42
-5.55
-5.88
-6.54
-7.52
-8.72
-9.98
-11.12
-11.97
-12.39
-12.24
-11.39
-9.80
-7.56
-4.94
-2.32
-0.08
1.51
2.38
2.71
2.76
2.76
2.81
2.85
2.77
2.52
2.18
1.95
2.07
2.64
3.64
4.89
6.12
7.14
7.88
8.35
8.65
8.81
8.83
8.68
8.43
8.22
8.26
8.65
9.39
10.33
11.26
12.01
12.57
13.03
13.53
14.13
14.82
15.49
16.03
16.39
16.69
17.17
18.15
20.00
23.04
27.41
33.01
39.44
46.08
52.18
57.02
60.09
61.15
60.27
57.74
53.96
49.26
43.86
37.79
31.02
23.51
15.41
7.04
-1.15
-8.69
-15.29
-20.83
-25.40
-29.14
-32.22
-34.74
-36.86
-38.76
-40.65
-42.64
-44.75
-46.79
-48.49
-49.55
-49.84
-49.37
-48.30
-46.88
-45.33
-43.78
-42.29
-40.80
-39.27
-37.62
-35.74
-33.57
-31.02
-28.05
-24.69
-21.01
-17.15
-13.19
-9.16
-4.95
-0.48
4.27
9.12
13.71
17.65
20.63
22.61
23.79
24.56
25.25
26.07
26.98
27.76
28.18
28.10
27.53
26.56
25.28
23.68
21.67
19.13
16.05
12.53
8.74
4.79
0.72
-3.54
-7.99
-12.47
-16.65
-20.05
-22.34
-23.40
-23.45
-22.91
-22.23
-21.75
-21.62
-21.76
-21.99
-22.09
-21.86
-21.15
-19.89
-18.13
-16.06
-13.98
-12.18
-10.89
-10.12
-9.74
-9.53
-9.32
-9.01
-8.69
-8.41
-8.23
-8.13
-7.99
-7.71
-7.26
-6.72
-6.23
-5.91
-5.78
-5.67
-5.33
-4.52
-3.09
-1.05
1.44
4.20
7.07
9.99
12.94
15.86
18.59
20.86
22.42
23.17
23.23
22.93
22.66
22.71
23.14
23.75
24.24
24.30
23.75
22.53
20.73
18.50
16.02
13.51
11.22
9.31
7.85
6.74
5.75
4.68
3.40
1.94
0.41
-1.13
-2.69
-4.39
-6.34
-8.48
-10.65
-12.61
-14.22
-15.53
-16.80
-18.28
-20.05
-21.93
-23.53
-24.42
-24.41
-23.56
-22.14
-20.45
-18.66
-16.76
-14.73
-12.61
-10.62
-9.07
-8.17
-7.94
-8.22
-8.77
-9.41
-10.07
-10.79
-11.59
-12.42
-13.13
-13.54
-13.53
-13.09
-12.25
-11.14
-9.83
-8.42
-6.95
-5.47
-4.02
-2.63
-1.31
-0.09
0.99
1.90
2.62
3.18
3.67
4.13
4.61
5.10
5.59
6.10
6.69
7.40
8.22
9.11
9.89
10.42
10.56
10.25
9.55
8.54
7.36
6.09
4.82
3.59
2.45
1.45
0.60
-0.16
-0.87
-1.64
-2.46
-3.24
-3.82
-4.02
-3.71
-2.86
-1.57
0.01
1.74
3.56
5.43
7.34
9.27
11.13
12.81
14.19
15.18
15.71
15.82
15.65
15.42
15.35
15.57
16.04
16.57
17.02
17.34
17.70
18.34
19.44
21.02
22.89
24.79
26.53
28.08
29.47
30.70
31.62
31.88
31.14
29.21
26.06
21.90
17.03
11.73
6.27
0.90
-4.08
-8.38
-11.70
-13.89
-14.88
-14.79
-13.85
-12.34
-10.52
-8.60
-6.71
-4.99
-3.55
-2.54
-2.08
-2.22
-2.87
-3.82
-4.81
-5.66
-6.34
-6.95
-7.67
-8.57
-9.54
-10.36
-10.85
-10.96
-10.80
-10.58
-10.37
-10.12
-9.64
-8.80
-7.57
-6.14
-4.76
-3.63
-2.77
-2.07
-1.34
-0.50
0.40
1.16
1.62
1.65
1.29
0.72
0.13
-0.25
-0.23
0.32
1.42
3.06
5.15
7.57
10.23
13.09
16.10
19.19
22.24
25.04
27.47
29.44
31.08
32.58
34.18
36.01
38.01
40.02
41.89
43.54
44.92
46.14
47.40
48.90
50.73
52.91
55.42
58.32
61.72
65.53
69.61
73.72
77.62
81.07
83.99
86.42
88.41
89.91
90.33
89.16
86.22
81.76
76.31
70.34
64.05
57.25
49.53
39.80
27.83
14.51
1.39
-10.30
-20.35
-29.49
-38.87
-49.43
-63.11
-80.35
-99.89
-119.71
-138.46
-156.01
-172.95
-189.87
-206.91
-226.45
-249.44
-274.94
-300.78
-324.83
-345.39
-360.62
-368.25
-366.16
-356.63
-341.80
-322.58
-298.76
-270.50
-239.17
-207.28
-177.98
-133.57
-70.15
2.70
69.39
120.91
157.78
184.65
205.17
220.97
232.33
236.26
232.27
222.97
212.56
204.02
198.13
194.00
190.88
188.27
183.52
175.45
164.86
153.71
143.40
134.08
124.42
114.07
102.89
89.41
73.22
55.28
37.37
20.90
8.47
-0.91
-8.00
-13.38
-18.24
-23.12
-27.68
-31.08
-32.54
-31.93
-30.02
-27.57
-25.51
-24.83
-25.83
-27.87
-29.64
-29.84
-27.80
-24.15
-20.09
-17.26
-16.94
-19.37
-23.47
-27.29
-28.85
-27.30
-23.41
-19.03
-16.40
-17.07
-21.16
-27.67
-35.08
-41.92
-46.71
-47.65
-42.75
-30.80
-12.95
6.70
22.08
27.57
20.79
3.87
-17.79
-38.49
-54.52
-65.99
-75.69
-86.57
-99.05
-110.15
-114.68
-108.10
-89.06
-60.42
-28.21
0.93
22.56
35.98
43.78
49.71
56.25
63.43
69.50
72.50
72.15
70.30
69.76
72.73
79.77
89.72
100.44
109.24
113.04
109.00
95.05
70.97
39.14
3.99
-29.73
-59.02
-83.31
-103.28
-118.42
-125.61
-119.96
-97.92
-60.80
-15.90
25.79
54.31
65.20
61.16
49.88
39.81
36.56
41.19
51.17
62.30
70.24
71.25
62.76
44.15
17.43
-12.24
-37.84
-52.63
-52.72
-38.44
-13.85
15.39
44.57
70.98
94.51
116.39
137.47
156.80
171.34
176.66
168.81
146.27
110.51
66.31
20.11
-22.50
-58.54
-86.73
-106.73
-118.81
-120.10
-109.39
-87.50
-57.76
-25.53
3.85
26.79
42.24
51.69
58.29
63.89
69.42
74.74
78.58
79.74
77.60
72.64
66.56
61.86
58.80
56.73
54.49
50.16
42.22
29.72
12.79
-7.49
-29.54
-54.95
-86.75
-124.58
-169.04
-220.12
-277.44
-340.09
-407.26
-463.89
-498.72
-505.53
-483.94
-437.80
-372.15
-293.61
-210.07
-130.55
-62.64
-12.71
17.66
31.47
33.39
28.67
20.58
12.62
7.88
9.14
15.74
25.21
34.34
40.26
41.82
39.71
39.15
44.48
59.42
83.34
112.59
142.64
169.68
192.22
211.00
231.51
259.90
300.99
355.73
422.23
496.92
574.65
648.76
692.77
685.21
618.76
506.85
376.28
253.62
155.09
84.30
36.29
2.94
-19.52
-31.71
-32.72
-25.24
-14.50
-6.39
-5.45
-12.95
-27.05
-42.02
-52.37
-55.87
-55.19
-56.59
-63.82
-79.79
-104.50
-135.57
-167.96
-197.19
-221.20
-241.22
-260.65
-283.65
-314.20
-354.58
-404.61
-460.12
-513.57
-555.62
-577.90
-575.67
-549.60
-505.91
-453.69
-401.65
-355.20
-315.96
-282.98
-254.80
-230.80
-211.30
-196.80
-186.79
-179.44
-172.34
-163.62
-152.68
-140.23
-127.86
-116.92
-108.05
-100.75
-93.76
-85.70
-75.79
-64.20
-51.98
-40.58
-31.27
-24.68
-20.60
-18.25
-16.70
-15.28
-13.85
-12.74
-12.53
-13.64
-16.14
-19.65
-23.53
-27.09
-29.85
-31.63
-32.55
-32.90
-32.90
-32.62
-31.88
-30.36
-27.76
-23.88
-18.77
-12.67
-5.95
1.11
8.39
16.03
24.34
33.63
44.05
55.47
67.49
79.64
91.58
103.32
115.26
128.04
142.26
158.18
175.57
193.82
212.29
230.58
248.77
267.38
287.00
308.06
330.72
355.00
380.88
408.21
436.23
463.20
486.33
502.40
508.84
504.74
491.17
470.52
445.46
417.94
388.92
358.84
328.37
298.79
271.57
247.40
225.35
202.94
177.07
145.60
108.49
68.09
28.17
-7.78
-37.98
-63.04
-85.25
-107.14
-129.95
-152.94
-173.91
-190.56
-201.89
-208.76
-213.48
-218.60
-225.82
-235.36
-246.13
-256.38
-264.39
-268.81
-268.79
-263.90
-254.16
-240.01
-222.30
-201.99
-179.86
-156.35
-131.61
-105.93
-80.12
-55.56
-33.86
-16.31
-3.31
5.80
12.45
18.32
24.75
32.53
41.92
52.94
65.43
79.10
93.26
106.67
117.71
124.80
126.97
124.15
117.27
107.81
97.38
87.30
78.47
71.37
66.16
62.75
60.82
59.95
59.80
60.29
61.64
64.23
68.23
73.24
78.29
82.10
83.61
82.50
79.19
74.56
69.47
64.31
58.94
52.99
46.14
38.53
30.68
23.29
16.96
11.95
8.16
5.22
2.71
0.33
-2.00
-4.18
-6.05
-7.51
-8.58
-9.34
-9.81
-9.96
-9.67
-8.96
-8.00
-7.06
-6.39
-5.93
-5.39
-4.33
-2.49
0.08
3.11
6.36
10.00
14.62
20.96
29.54
40.28
52.44
64.81
76.06
85.10
91.32
94.60
95.20
93.72
90.94
87.77
85.04
83.34
82.98
84.10
86.56
90.04
94.15
98.66
103.62
109.43
116.58
125.24
135.34
145.87
155.14
161.36
163.43
161.32
155.92
148.49
140.18
132.67
126.95
123.23
121.01
119.39
117.35
114.09
109.35
103.57
99.32
98.55
101.46
106.03
108.79
106.36
96.80
80.22
58.52
36.41
17.23
1.71
-11.91
-26.34
-43.38
-62.84
-82.89
-112.12
-152.09
-198.81
-244.20
-280.63
-304.75
-317.48
-321.82
-320.46
-316.42
-309.19
-298.14
-283.88
-268.70
-255.86
-248.72
-248.95
-257.54
-274.73
-298.00
-323.73
-347.06
-362.20
-363.63
-347.70
-314.56
-268.58
-217.27
-167.60
-124.89
-91.63
-67.77
-52.13
-43.17
-39.76
-40.46
-43.38
-45.60
-44.24
-37.32
-24.37
-7.26
10.45
23.80
28.79
23.00
6.77
-16.80
-42.50
-64.36
-78.11
-80.98
-72.74
-53.46
-23.86
14.67
59.89
108.42
156.14
197.98
230.61
242.84
227.91
186.87
129.24
68.17
13.89
-24.38
-50.35
-69.16
-84.74
-97.36
-105.10
-106.92
-101.79
-89.72
-72.17
-52.22
-31.91
-12.53
6.93
28.50
54.17
85.40
123.25
167.99
218.38
272.53
326.27
373.70
407.55
421.20
411.30
379.78
332.56
276.98
219.98
165.86
116.50
71.98
32.17
-6.09
-41.36
-69.87
-88.31
-95.78
-94.20
-86.39
-74.80
-60.63
-44.21
-25.35
-4.89
14.96
32.16
45.18
53.63
58.03
59.70
60.10
60.62
61.34
61.03
57.71
49.21
36.49
20.75
3.74
-12.62
-26.44
-36.64
-42.96
-45.64
-45.02
-41.20
-34.40
-24.66
-12.17
2.83
19.62
37.10
54.10
69.57
82.91
93.73
102.09
108.35
112.97
116.21
118.05
118.16
116.15
111.78
105.03
96.32
86.37
75.89
65.24
54.28
42.31
28.54
12.51
-5.62
-24.89
-43.87
-61.28
-76.64
-90.65
-105.01
-121.79
-142.53
-167.65
-196.22
-226.59
-257.09
-286.87
-316.27
-346.45
-378.91
-415.19
-456.67
-504.18
-557.42
-613.83
-667.80
-711.14
-735.70
-736.38
-713.80
-674.21
-626.65
-579.03
-535.34
-495.24
-456.02
-415.60
-374.12
-333.80
-297.14
-264.58
-234.53
-204.53
-173.05
-140.36
-108.43
-79.51
-55.05
-35.15
-17.36
1.23
22.31
45.56
69.15
90.14
107.09
119.59
128.20
136.89
149.42
167.35
189.45
212.90
233.71
250.95
264.84
276.03
289.52
309.57
337.06
369.19
401.60
428.83
450.54
468.02
482.67
501.08
528.46
565.41
607.63
648.74
680.82
702.55
714.45
683.08
589.46
437.94
255.48
74.43
-66.66
-172.53
-252.02
-311.69
-355.30
-383.02
-392.41
-384.30
-363.90
-338.11
-315.25
-296.93
-282.73
-271.88
-259.48
-241.29
-216.53
-188.13
-160.53
-139.26
-124.66
-115.35
-109.53
-102.81
-91.33
-73.95
-52.51
-30.44
-12.28
0.74
8.93
13.54
17.82
25.16
37.41
54.35
74.25
94.18
112.59
128.81
143.11
157.21
173.74
195.41
224.24
260.67
302.22
343.58
376.87
393.65
387.74
357.77
307.91
246.60
183.93
128.59
85.74
56.40
38.24
27.09
18.45
8.67
-4.45
-21.46
-41.35
-61.94
-80.52
-94.48
-101.79
-101.40
-93.37
-78.86
-60.01
-39.62
-20.92
-6.96
-0.09
-1.32
-9.95
-23.57
-38.61
-51.44
-59.34
-61.09
-56.78
-47.19
-32.86
-13.72
10.92
41.69
78.36
119.30
161.37
200.42
232.20
253.34
262.19
259.01
245.59
224.53
198.40
169.24
138.56
107.53
77.30
49.06
23.82
2.12
-16.12
-31.47
-44.65
-56.06
-65.47
-71.99
-74.55
-72.45
-65.99
-56.70
-46.90
-38.86
-33.73
-30.98
-28.53
-23.70
-14.47
-0.33
17.54
36.93
55.57
71.97
85.62
96.65
105.24
111.18
113.87
112.55
106.82
96.99
84.00
69.16
53.73
38.58
24.03
10.07
-3.41
-16.42
-28.75
-40.15
-50.45
-59.63
-67.79
-75.03
-81.36
-86.70
-90.94
-93.97
-95.72
-96.21
-95.58
-94.23
-92.78
-91.94
-92.29
-94.10
-97.21
-101.25
-105.81
-110.59
-115.55
-120.72
-126.12
-131.71
-137.22
-142.23
-146.04
-147.78
-146.56
-141.86
-133.85
-123.50
-112.36
-102.08
-93.86
-88.21
-84.96
-83.53
-83.31
-83.76
-84.43
-84.79
-84.22
-82.01
-77.62
-70.87
-62.01
-51.60
-40.29
-28.65
-17.03
-5.65
5.29
15.56
24.81
32.72
39.10
43.99
47.56
50.07
51.63
52.19
51.64
49.88
47.01
43.36
39.42
35.78
32.99
31.46
31.41
32.84
35.57
39.32
43.82
48.84
54.16
59.54
64.64
69.03
72.35
74.34
74.97
74.41
72.88
70.60
67.70
64.28
60.47
56.45
52.40
48.44
44.68
41.13
37.76
34.49
31.21
27.79
24.14
20.23
16.16
12.07
8.07
4.21
0.38
-3.52
-7.55
-11.62
-15.55
-19.12
-22.21
-24.83
-27.09
-29.20
-31.29
-33.37
-35.36
-37.06
-38.28
-38.93
-39.02
-38.71
-38.19
-37.63
-37.03
-36.27
-35.21
-33.73
-31.90
-29.92
-28.10
-26.73
-25.98
-25.87
-26.26
-26.89
-27.52
-28.01
-28.37
-28.80
-29.66
-31.33
-34.11
-38.08
-43.00
-48.37
-53.45
-57.34
-59.23
-58.58
-55.28
-49.72
-42.69
-35.20
-28.26
-22.66
-18.89
-17.05
-16.97
-18.31
-20.62
-23.47
-26.51
-29.56
-32.57
-35.69
-39.17
-43.33
-48.55
-55.02
-62.67
-71.06
-79.51
-87.29
-93.88
-99.21
-103.52
-107.26
-110.73
-113.97
-116.70
-118.58
-119.40
-119.22
-118.31
-117.00
-115.44
-113.59
-111.26
-108.33
-104.78
-100.82
-96.72
-92.60
-88.32
-83.45
-77.39
-69.62
-59.90
-48.24
-34.97
-20.53
-5.37
10.10
25.50
40.46
54.52
67.18
78.04
86.92
94.08
100.20
106.21
112.79
119.91
126.70
131.64
133.18
130.53
124.05
115.13
105.59
96.94
89.95
84.82
81.58
80.40
81.51
84.64
88.54
91.07
89.91
83.66
72.64
58.80
44.80
32.71
23.34
16.25
10.63
6.22
3.49
3.25
5.80
10.51
16.00
20.92
24.71
27.96
32.06
38.38
47.58
59.20
71.89
83.89
93.79
101.06
106.25
110.87
116.81
125.56
137.42
151.27
164.78
175.14
180.00
178.06
169.42
155.34
137.83
119.07
100.83
84.25
69.74
57.22
46.33
36.63
27.62
18.76
9.40
-0.96
-12.48
-24.74
-36.77
-47.29
-55.21
-60.06
-62.14
-62.34
-61.75
-61.22
-61.19
-61.63
-62.23
-62.68
-62.80
-62.67
-62.48
-62.47
-62.73
-63.20
-63.67
-63.86
-63.59
-62.85
-61.79
-60.67
-59.72
-59.02
-58.55
-58.21
-57.90
-57.64
-57.61
-58.15
-59.60
-62.21
-65.95
-70.49
-75.20
-79.31
-82.23
-83.60
-83.35
-81.40
-77.34
-70.28
-59.05
-42.68
-20.80
6.07
36.76
69.50
102.00
131.34
153.95
166.09
164.77
148.91
119.94
81.67
39.15
-2.77
-40.57
-72.28
-97.08
-114.69
-124.88
-127.49
-122.80
-111.76
-95.96
-77.26
-57.30
-37.13
-17.32
1.94
20.48
37.96
53.73
66.88
76.47
81.81
82.82
79.86
73.92
66.39
58.73
52.15
47.30
44.38
43.36
44.19
46.27
49.01
51.98
55.10
58.73
63.47
70.04
79.21
91.63
106.17
121.22
135.34
148.08
159.98
171.91
184.23
196.54
207.80
214.52
213.31
201.92
179.93
148.19
107.66
58.80
2.14
-61.16
-131.53
-208.59
-290.67
-374.57
-456.40
-532.94
-602.38
-663.90
-699.11
-692.14
-635.25
-535.27
-410.62
-281.72
-163.27
-62.92
17.47
79.09
122.14
147.43
157.14
155.50
148.96
144.01
144.71
151.52
160.37
162.69
150.78
121.77
79.91
35.19
-1.13
-21.18
-19.87
-0.17
27.52
51.97
66.13
69.03
63.88
54.45
42.89
29.73
14.46
-3.53
-22.98
-41.90
-58.25
-70.76
-79.48
-85.51
-90.17
-94.47
-98.64
-101.60
-102.12
-99.44
-93.70
-85.95
-77.68
-70.20
-64.59
-61.25
-59.48
-58.40
-57.21
-55.25
-51.94
-46.54
-38.02
-25.20
-9.84
7.29
25.50
44.10
62.62
80.93
99.27
118.27
138.75
161.49
187.22
215.29
243.24
266.94
281.51
283.09
270.23
244.66
210.54
173.24
137.08
104.22
74.77
47.66
21.80
-3.21
-27.05
-49.06
-68.36
-84.25
-96.24
-104.18
-108.64
-110.92
-112.76
-115.37
-118.47
-119.81
-115.93
-103.79
-82.46
-54.09
-23.46
3.52
21.57
27.14
18.77
-2.92
-34.90
-71.29
-103.55
-122.25
-120.02
-94.79
-51.28
0.24
47.78
82.06
99.54
102.71
97.83
91.58
88.64
90.94
98.46
110.43
125.96
143.84
161.95
176.93
184.69
181.70
166.36
139.87
106.09
70.25
37.38
10.96
-7.67
-18.93
-24.31
-25.60
-24.42
-22.17
-20.04
-19.05
-19.77
-22.33
-26.23
-30.56
-34.24
-36.31
-36.11
-33.39
-28.27
-21.14
-12.63
-3.37
6.02
15.04
23.34
30.73
37.12
42.49
46.86
50.20
52.56
53.93
54.42
54.21
53.51
52.56
51.61
50.91
50.67
51.17
52.53
54.66
57.04
58.57
57.70
52.75
42.53
26.85
6.94
-14.71
-34.94
-50.88
-60.83
-64.81
-64.37
-61.75
-58.72
-55.56
-50.92
-42.33
-27.51
-5.69
21.68
51.14
78.29
99.00
110.62
112.43
105.62
92.96
78.20
65.37
57.65
56.13
59.07
62.01
59.32
46.58
22.73
-9.24
-43.34
-73.06
-93.71
-103.70
-104.27
-98.33
-88.95
-78.51
-68.42
-59.42
-51.99
-46.65
-43.91
-43.98
-46.33
-49.45
-51.29
-50.11
-45.50
-38.83
-32.55
-28.74
-27.71
-27.56
-25.32
-18.77
-7.98
4.52
15.06
20.62
20.09
14.45
5.92
-2.99
-10.26
-14.43
-14.71
-10.99
-3.93
5.06
14.21
21.90
27.11
29.56
29.64
28.00
25.25
21.92
18.36
14.71
10.88
6.44
0.68
-7.12
-17.38
-30.18
-45.31
-62.54
-81.69
-102.32
-123.31
-142.64
-157.66
-165.92
-166.14
-158.90
-146.43
-131.70
-117.28
-104.51
-93.52
-84.02
-75.99
-69.88
-65.95
-63.46
-60.32
-53.74
-41.85
-24.96
-5.81
11.51
23.71
29.90
32.00
33.58
37.86
46.22
57.72
70.02
80.62
88.00
91.79
92.37
90.23
85.55
78.22
68.12
55.64
41.82
28.41
17.29
9.81
6.24
5.65
6.46
7.19
7.21
6.78
6.68
7.46
8.97
10.55
11.57
12.03
12.65
14.39
17.68
22.03
26.25
29.13
30.17
29.67
28.43
26.99
25.22
22.38
17.58
10.38
0.99
-9.83
-21.24
-32.60
-43.46
-53.35
-61.54
-67.02
-68.83
-66.53
-60.43
-51.62
-41.67
-32.28
-24.95
-20.79
-20.45
-24.12
-31.50
-41.84
-54.16
-67.46
-80.92
-93.96
-106.01
-116.37
-124.15
-128.41
-128.53
-124.59
-117.39
-108.15
-98.00
-87.47
-76.30
-63.66
-48.68
-30.95
-10.79
10.82
32.58
53.24
71.93
88.15
101.71
112.49
120.31
124.90
126.08
123.94
118.96
112.07
104.42
96.98
90.18
83.69
76.52
67.37
55.06
38.89
18.74
-4.85
-30.81
-57.59
-83.24
-105.58
-122.52
-132.31
-133.84
-126.73
-111.36
-88.80
-60.84
-29.88
1.18
29.44
52.50
69.05
79.05
83.52
84.11
82.59
80.47
78.83
78.41
79.53
82.20
86.01
90.24
94.01
96.58
97.60
97.15
95.70
93.98
92.70
92.53
93.87
96.83
101.16
106.39
112.01
117.72
123.52
129.68
136.47
143.86
151.45
158.50
164.28
168.42
171.08
172.81
174.01
174.38
172.54
166.22
152.89
130.61
98.69
57.84
10.05
-41.76
-94.10
-143.26
-185.74
-218.75
-240.69
-251.36
-251.77
-243.64
-229.07
-210.32
-189.89
-170.60
-155.04
-144.70
-139.30
-136.85
-134.65
-130.82
-125.25
-119.55
-115.91
-115.72
-118.77
-123.61
-128.53
-132.54
-135.40
-136.92
-136.23
-131.86
-122.28
-107.05
-87.50
-66.43
-47.10
-31.74
-20.66
-12.42
-5.18
2.62
11.79
22.39
34.08
46.34
58.70
70.88
82.94
94.23
104.68
115.10
127.08
142.02
159.83
178.20
193.15
200.40
195.30
175.80
143.17
101.48
55.85
10.44
-32.52
-72.38
-109.31
-146.05
-185.32
-228.95
-276.91
-327.23
-376.71
-421.96
-460.19
-474.87
-454.73
-397.17
-311.08
-212.54
-116.58
-32.09
38.06
94.41
138.62
170.23
189.11
196.48
195.46
190.25
184.53
180.50
178.88
179.56
180.42
179.52
175.91
170.08
163.59
157.98
154.05
151.83
150.69
148.96
145.28
139.09
131.01
122.40
114.71
108.89
105.15
102.77
100.26
96.17
89.61
80.45
69.22
56.51
43.03
29.08
13.91
-3.30
-22.93
-44.33
-65.82
-85.11
-100.30
-109.74
-112.96
-111.81
-109.04
-107.46
-108.86
-113.72
-121.71
-132.79
-146.65
-158.65
-167.97
-175.40
-182.76
-192.03
-204.93
-222.16
-242.80
-261.43
-270.07
-262.25
-235.06
-191.07
-137.33
-83.13
-33.29
4.23
26.01
34.36
34.18
30.61
24.65
15.85
4.64
-6.96
-17.33
-22.08
-17.87
-4.75
14.35
35.64
57.04
78.74
102.54
130.36
166.64
214.40
272.60
336.38
399.11
455.14
500.87
534.64
538.72
503.21
430.01
332.33
227.50
129.14
44.59
-23.81
-76.57
-113.29
-134.97
-142.09
-136.57
-122.30
-104.04
-85.59
-68.97
-57.16
-51.53
-50.53
-51.66
-53.52
-56.43
-61.72
-70.51
-83.06
-98.27
-114.47
-128.79
-138.71
-143.44
-144.03
-142.53
-140.77
-139.78
-138.70
-136.32
-130.54
-119.84
-104.34
-85.63
-66.15
-48.05
-32.52
-18.61
-5.38
9.23
27.15
49.57
76.46
106.63
137.92
164.51
182.36
187.91
181.01
164.39
142.45
119.47
97.92
77.71
53.18
27.30
-2.02
-34.02
-65.95
-93.98
-114.50
-125.31
-126.45
-120.09
-108.92
-96.99
-86.54
-78.26
-71.70
-66.14
-61.46
-58.25
-57.26
-57.78
-59.03
-59.02
-56.17
-50.10
-41.79
-32.73
-24.04
-15.77
-6.66
4.05
16.89
31.36
46.16
59.83
71.23
79.84
85.58
88.79
89.60
88.45
86.01
83.16
80.72
79.17
78.42
77.95
77.09
75.15
71.85
67.28
61.79
55.81
49.75
43.90
38.45
33.51
29.16
25.40
22.23
19.53
17.21
15.11
13.06
10.94
8.65
6.23
3.82
1.62
-0.22
-1.66
-2.78
-3.77
-4.78
-5.87
-7.03
-8.18
-9.28
-10.36
-11.42
-12.46
-13.39
-14.10
-14.50
-14.61
-14.49
-14.23
-13.83
-13.28
-12.51
-11.53
-10.39
-9.20
-8.08
-7.10
-6.29
-5.65
-5.17
-4.77
-4.38
-3.93
-3.41
-2.86
-2.35
-1.99
-1.81
-1.80
-1.87
-1.90
-1.82
-1.58
-1.23
-0.85
-0.55
-0.41
-0.47
-0.71
-1.06
-1.43
-1.77
-2.04
-2.28
-2.52
-2.81
-3.13
-3.48
-3.86
-4.22
-4.57
-4.88
-5.16
-5.44
-5.75
-6.13
-6.62
-7.20
-7.86
-8.51
-9.05
-9.36
-9.38
-9.05
-8.39
-7.46
-6.39
-5.28
-4.25
-3.32
-2.45
-1.64
-0.85
-0.08
0.63
1.27
1.88
2.48
3.10
3.71
4.26
4.69
4.94
5.03
5.03
5.02
5.05
5.12
5.14
4.99
4.59
3.94
3.11
2.25
1.52
0.98
0.58
0.19
-0.39
-1.26
-2.42
-3.69
-4.84
-5.62
-5.96
-5.91
-5.69
-5.55
-5.62
-5.91
-6.31
-6.61
-6.67
-6.45
-5.96
-5.29
-4.50
-3.63
-2.77
-2.04
-1.53
-1.30
-1.34
-1.56
-1.85
-2.14
-2.35
-2.49
-2.55
-2.49
-2.26
-1.81
-1.17
-0.48
0.07
0.31
0.15
-0.35
-1.00
-1.57
-1.84
-1.79
-1.51
-1.20
-1.03
-1.07
-1.28
-1.54
-1.76
-1.88
-1.92
-1.97
-2.10
-2.38
-2.86
-3.54
-4.36
-5.21
-5.96
-6.52
-6.78
-6.73
-6.39
-5.78
-4.98
-4.07
-3.16
-2.35
-1.68
-1.10
-0.52
0.14
0.87
1.56
2.06
2.25
2.14
1.88
1.61
1.45
1.36
1.25
1.02
0.65
0.24
-0.10
-0.33
-0.46
-0.56
-0.67
-0.72
-0.61
-0.30
0.15
0.58
0.80
0.69
0.26
-0.36
-1.02
-1.67
-2.32
-3.01
-3.80
-4.68
-5.56
-6.41
-7.21
-7.99
-8.83
-9.75
-10.68
-11.51
-12.10
-12.35
-12.29
-12.03
-11.70
-11.44
-11.31
-11.28
-11.34
-11.47
-11.73
-12.19
-12.93
-13.89
-14.88
-15.55
-15.50
-14.51
-12.61
-10.10
-7.31
-4.35
-0.83
4.07
11.30
21.54
34.95
51.22
69.59
89.08
108.43
125.95
139.58
147.15
147.03
138.65
122.84
101.59
77.40
52.62
28.85
6.91
-13.07
-31.11
-47.23
-61.23
-72.65
-80.91
-85.59
-86.69
-84.66
-80.36
-74.66
-68.24
-61.51
-54.71
-48.13
-42.20
-37.41
-34.13
-32.57
-32.76
-34.81
-39.01
-45.80
-55.37
-67.19
-79.73
-90.62
-97.13
-97.09
-89.75
-76.37
-60.00
-44.42
-32.57
-25.37
-21.48
-18.10
-12.59
-3.78
7.54
19.19
28.97
35.91
40.99
46.84
56.77
73.19
96.29
123.42
149.47
168.50
175.90
170.10
153.19
129.75
104.84
81.98
62.38
45.48
30.18
16.02
3.37
-7.21
-15.81
-23.63
-32.50
-44.08
-58.94
-76.20
-93.93
-109.79
-121.96
-129.64
-133.25
-134.09
-133.72
-133.32
-133.18
-132.60
-130.22
-124.73
-115.45
-102.71
-87.63
-71.60
-55.71
-40.36
-25.45
-10.74
3.75
17.56
29.94
40.19
47.98
53.42
56.99
59.37
61.18
62.77
64.24
65.41
65.96
65.58
64.16
61.73
58.53
54.84
50.93
46.94
42.91
38.86
34.86
31.08
27.80
25.26
23.64
22.91
22.89
23.24
23.62
23.77
23.58
23.01
22.09
20.85
19.33
17.62
15.82
14.09
12.60
11.46
10.69
10.17
9.77
9.29
8.62
7.73
6.71
5.68
4.77
4.02
3.40
2.81
2.14
1.35
0.48
-0.37
-1.08
-1.65
-2.09
-2.51
-3.01
-3.60
-4.22
-4.79
-5.23
-5.57
-5.94
-6.47
-7.25
-8.23
-9.22
-10.00
-10.35
-10.15
-9.42
-8.27
-6.90
-5.49
-4.25
-3.33
-2.82
-2.69
-2.81
-3.02
-3.16
-3.18
-3.15
-3.21
-3.44
-3.86
-4.31
-4.61
-4.61
-4.26
-3.68
-3.06
-2.57
-2.27
-2.06
-1.82
-1.42
-0.87
-0.26
0.23
0.48
0.46
0.22
-0.15
-0.58
-1.06
-1.61
-2.22
-2.83
-3.32
-3.60
-3.63
-3.44
-3.14
-2.85
-2.63
-2.49
-2.37
-2.18
-1.83
-1.27
-0.48
0.48
1.54
2.66
3.80
4.93
6.02
6.98
7.74
8.24
8.46
8.43
8.23
7.89
7.47
6.99
6.53
6.19
6.01
5.99
6.04
6.02
5.81
5.37
4.75
4.06
3.39
2.77
2.19
1.59
0.94
0.21
-0.55
-1.31
-2.00
-2.60
-3.09
-3.54
-4.02
-4.63
-5.41
-6.33
-7.32
-8.25
-9.00
-9.44
-9.48
-9.09
-8.28
-7.10
-5.70
-4.24
-2.87
-1.70
-0.77
-0.08
0.34
0.47
0.28
-0.23
-1.00
-1.95
-2.98
-3.99
-4.83
-5.35
-5.46
-5.12
-4.46
-3.69
-3.02
-2.60
-2.44
-2.42
-2.46
-2.52
-2.63
-2.84
-3.18
-3.54
-3.81
-3.92
-3.89
-3.82
-3.83
-3.97
-4.19
-4.42
-4.58
-4.67
-4.77
-4.91
-5.11
-5.28
-5.22
-4.78
-3.85
-2.46
-0.71
1.22
3.15
4.89
6.31
7.27
7.71
7.65
7.22
6.58
5.96
5.49
5.22
5.09
5.01
4.89
4.71
4.48
4.21
3.85
3.37
2.68
1.81
0.82
-0.14
-0.95
-1.59
-2.10
-2.55
-2.97
-3.36
-3.66
-3.88
-4.07
-4.35
-4.82
-5.48
-6.25
-6.94
-7.43
-7.66
-7.71
-7.66
-7.57
-7.45
-7.22
-6.79
-6.07
-5.00
-3.56
-1.81
0.15
2.16
4.00
5.46
6.38
6.75
6.65
6.29
5.91
5.65
5.55
5.51
5.43
5.20
4.82
4.32
3.75
3.13
2.47
1.80
1.13
0.56
0.12
-0.19
-0.44
-0.73
-1.11
-1.58
-2.10
-2.63
-3.13
-3.60
-4.00
-4.32
-4.53
-4.65
-4.75
-4.87
-5.10
-5.45
-5.90
-6.43
-7.01
-7.56
-7.94
-7.95
-7.42
-6.29
-4.60
-2.59
-0.52
1.35
2.87
3.97
4.68
5.06
5.21
5.26
5.31
5.45
5.71
6.01
6.23
6.28
6.13
5.86
5.59
5.42
5.37
5.35
5.29
5.13
4.86
4.50
4.01
3.38
2.55
1.54
0.43
-0.63
-1.51
-2.14
-2.55
-2.80
-2.96
-3.04
-3.04
-2.95
-2.83
-2.81
-3.05
-3.69
-4.74
-6.10
-7.55
-8.82
-9.70
-10.06
-9.92
-9.32
-8.34
-7.07
-5.54
-3.87
-2.17
-0.61
0.68
1.63
2.26
2.62
2.80
2.88
2.95
3.05
3.22
3.42
3.57
3.58
3.43
3.17
2.95
2.88
3.01
3.29
3.61
3.88
4.06
4.17
4.25
4.27
4.19
3.96
3.53
2.94
2.26
1.57
0.90
0.29
-0.31
-0.91
-1.52
-2.07
-2.52
-2.82
-3.01
-3.21
-3.55
-4.11
-4.82
-5.44
-5.67
-5.29
-4.21
-2.60
-0.74
1.06
2.60
3.78
4.64
5.27
5.72
6.04
6.20
6.18
5.99
5.65
5.22
4.82
4.52
4.38
4.41
4.49
4.54
4.43
4.17
3.76
3.31
2.87
2.50
2.18
1.86
1.45
0.90
0.19
-0.65
-1.55
-2.44
-3.25
-3.94
-4.51
-4.98
-5.37
-5.69
-5.95
-6.19
-6.46
-6.86
-7.45
-8.23
-9.10
-9.91
-10.45
-10.56
-10.15
-9.27
-8.09
-6.87
-5.82
-5.05
-4.54
-4.16
-3.80
-3.42
-3.08
-2.81
-2.63
-2.49
-2.29
-1.98
-1.60
-1.27
-1.10
-1.08
-1.13
-1.08
-0.83
-0.40
0.06
0.36
0.37
0.14
-0.19
-0.45
-0.54
-0.50
-0.41
-0.41
-0.55
-0.81
-1.19
-1.71
-2.42
-3.37
-4.49
-5.61
-6.53
-7.06
-7.18
-6.96
-6.54
-6.01
-5.37
-4.55
-3.46
-2.13
-0.67
0.73
1.87
2.68
3.15
3.37
3.43
3.38
3.21
2.94
2.61
2.26
2.01
1.92
2.04
2.33
2.75
3.22
3.66
3.97
4.07
3.92
3.56
3.10
2.66
2.35
2.14
1.93
1.58
0.97
0.11
-0.91
-1.97
-2.95
-3.79
-4.47
-4.99
-5.36
-5.66
-5.95
-6.30
-6.71
-7.13
-7.43
-7.52
-7.26
-6.59
-5.46
-3.87
-1.92
0.19
2.16
3.74
4.77
5.33
5.63
5.93
6.40
7.05
7.73
8.27
8.56
8.58
8.41
8.16
7.94
7.80
7.74
7.74
7.72
7.60
7.40
7.12
6.81
6.50
6.19
5.79
5.20
4.37
3.32
2.16
1.02
0.01
-0.86
-1.66
-2.46
-3.35
-4.30
-5.29
-6.26
-7.22
-8.14
-9.01
-9.73
-10.13
-10.04
-9.30
-7.91
-6.01
-3.82
-1.67
0.17
1.47
2.19
2.39
2.22
1.85
1.46
1.15
0.91
0.71
0.47
0.13
-0.33
-0.88
-1.48
-2.03
-2.47
-2.70
-2.65
-2.33
-1.82
-1.30
-0.95
-0.92
-1.24
-1.84
-2.57
-3.26
-3.86
-4.43
-5.06
-5.82
-6.73
-7.69
-8.55
-9.18
-9.50
-9.56
-9.47
-9.39
-9.40
-9.51
-9.54
-9.27
-8.44
-6.96
-4.93
-2.57
-0.23
1.86
3.54
4.82
5.76
6.41
6.79
6.89
6.76
6.50
6.26
6.16
6.24
6.45
6.64
6.74
6.74
6.71
6.74
6.83
6.88
6.70
6.16
5.27
4.25
3.41
3.01
3.07
3.41
3.73
3.73
3.33
2.59
1.68
0.79
-0.02
-0.73
-1.39
-2.02
-2.67
-3.37
-4.13
-4.97
-5.83
-6.62
-7.16
-7.27
-6.81
-5.69
-3.97
-1.75
0.70
3.10
5.17
6.74
7.79
8.44
8.84
9.11
9.28
9.34
9.24
9.00
8.66
8.25
7.79
7.27
6.70
6.14
5.71
5.53
5.64
5.93
6.20
6.23
5.89
5.17
4.21
3.14
2.11
1.18
0.35
-0.42
-1.18
-1.95
-2.75
-3.59
-4.48
-5.39
-6.31
-7.21
-8.09
-8.95
-9.85
-10.87
-12.02
-13.21
-14.22
-14.75
-14.53
-13.44
-11.62
-9.39
-7.20
-5.39
-4.13
-3.38
-2.98
-2.75
-2.57
-2.41
-2.25
-2.10
-1.90
-1.61
-1.19
-0.65
-0.07
0.40
0.67
0.71
0.61
0.50
0.55
0.85
1.40
2.09
2.77
3.31
3.63
3.66
3.35
2.67
1.64
0.40
-0.82
-1.80
-2.33
-2.38
-2.11
-1.77
-1.65
-1.99
-2.83
-4.02
-5.37
-6.55
-7.32
-7.50
-7.04
-5.99
-4.46
-2.59
-0.52
1.57
3.52
5.16
6.34
7.02
7.32
7.44
7.59
7.89
8.30
8.70
8.89
8.79
8.41
7.85
7.25
6.71
6.29
5.97
5.72
5.51
5.30
5.03
4.63
4.06
3.32
2.48
1.66
0.96
0.44
0.11
-0.09
-0.24
-0.44
-0.74
-1.17
-1.73
-2.38
-3.10
-3.90
-4.82
-5.90
-7.12
-8.41
-9.61
-10.52
-10.94
-10.72
-9.85
-8.40
-6.49
-4.30
-2.01
0.24
2.29
4.07
5.49
6.58
7.38
7.98
8.45
8.82
9.09
9.21
9.15
8.94
8.67
8.46
8.41
8.55
8.84
9.24
9.68
10.11
10.49
10.72
10.73
10.40
9.75
8.88
7.95
7.10
6.36
5.69
4.99
4.16
3.17
2.04
0.87
-0.25
-1.27
-2.16
-2.93
-3.68
-4.52
-5.56
-6.84
-8.29
-9.82
-11.28
-12.57
-13.59
-14.21
-14.23
-13.50
-11.91
-9.58
-6.85
-4.17
-1.95
-0.46
0.30
0.55
0.60
0.69
0.90
1.19
1.42
1.47
1.33
1.08
0.83
0.71
0.73
0.80
0.84
0.81
0.73
0.68
0.71
0.81
0.88
0.79
0.50
0.03
-0.48
-0.90
-1.15
-1.32
-1.50
-1.79
-2.20
-2.64
-3.00
-3.25
-3.39
-3.53
-3.75
-4.11
-4.66
-5.40
-6.33
-7.40
-8.46
-9.29
-9.61
-9.24
-8.11
-6.37
-4.26
-2.04
0.05
1.87
3.32
4.35
4.96
5.23
5.30
5.32
5.41
5.58
5.80
5.98
6.09
6.14
6.17
6.21
6.20
6.10
5.88
5.57
5.22
4.90
4.60
4.23
3.68
2.90
1.94
0.94
0.11
-0.39
-0.52
-0.43
-0.31
-0.40
-0.81
-1.54
-2.42
-3.29
-4.03
-4.58
-5.00
-5.42
-5.99
-6.79
-7.86
-9.09
-10.30
-11.23
-11.63
-11.33
-10.28
-8.58
-6.43
-4.09
-1.80
0.24
1.89
3.12
3.96
4.51
4.87
5.16
5.46
5.78
6.10
6.39
6.55
6.55
6.38
6.13
5.89
5.79
5.85
6.03
6.25
6.39
6.40
6.27
6.04
5.75
5.45
5.14
4.86
4.60
4.36
4.13
3.92
3.72
3.53
3.32
3.05
2.65
2.05
1.27
0.37
-0.54
-1.35
-2.07
-2.79
-3.65
-4.78
-6.17
-7.59
-8.71
-9.16
-8.74
-7.45
-5.49
-3.12
-0.65
1.73
3.92
5.81
7.30
8.33
8.90
9.10
9.14
9.22
9.43
9.68
9.78
9.56
8.98
8.17
7.35
6.71
6.28
5.95
5.58
5.05
4.40
3.75
3.22
2.80
2.41
1.90
1.16
0.19
-0.88
-1.84
-2.49
-2.78
-2.77
-2.64
-2.62
-2.83
-3.26
-3.80
-4.30
-4.65
-4.87
-5.07
-5.42
-6.04
-6.98
-8.21
-9.65
-11.15
-12.51
-13.48
-13.81
-13.30
-11.93
-9.86
-7.44
-5.11
-3.24
-2.00
-1.37
-1.11
-0.97
-0.77
-0.50
-0.23
-0.11
-0.17
-0.35
-0.53
-0.61
-0.60
-0.60
-0.71
-0.95
-1.23
-1.39
-1.31
-0.92
-0.34
0.25
0.64
0.66
0.29
-0.37
-1.09
-1.66
-1.93
-1.89
-1.71
-1.58
-1.66
-1.99
-2.44
-2.85
-3.13
-3.34
-3.61
-4.10
-4.87
-5.81
-6.72
-7.38
-7.66
-7.50
-6.93
-5.94
-4.57
-2.86
-0.93
1.04
2.83
4.25
5.21
5.71
5.84
5.69
5.38
5.01
4.67
4.40
4.23
4.15
4.16
4.28
4.52
4.87
5.25
5.54
5.63
5.46
5.14
4.79
4.56
4.48
4.47
4.38
4.08
3.56
2.92
2.32
1.83
1.46
1.10
0.69
0.23
-0.18
-0.44
-0.50
-0.41
-0.35
-0.51
-1.01
-1.83
-2.81
-3.71
-4.36
-4.60
-4.36
-3.63
-2.39
-0.68
1.35
3.48
5.42
6.93
7.89
8.36
8.49
8.48
8.39
8.19
7.78
7.10
6.25
5.43
4.85
4.63
4.74
5.02
5.29
5.43
5.36
5.13
4.75
4.22
3.52
2.65
1.63
0.56
-0.42
-1.23
-1.83
-2.31
-2.82
-3.47
-4.30
-5.26
-6.24
-7.11
-7.84
-8.43
-8.98
-9.54
-10.13
-10.76
-11.42
-12.12
-12.89
-13.70
-14.44
-14.88
-14.79
-14.00
-12.53
-10.56
-8.41
-6.39
-4.68
-3.32
-2.20
-1.14
-0.05
1.11
2.24
3.17
3.73
3.82
3.50
2.91
2.31
1.92
1.86
2.12
2.53
2.89
3.04
2.92
2.56
2.10
1.65
1.32
1.16
1.14
1.17
1.13
0.89
0.38
-0.36
-1.29
-2.27
-3.23
-4.05
-4.69
-5.11
-5.34
-5.49
-5.68
-6.06
-6.72
-7.61
-8.59
-9.45
-9.97
-9.97
-9.38
-8.21
-6.59
-4.65
-2.60
-0.62
1.14
2.58
3.66
4.37
4.76
4.88
4.83
4.77
4.80
5.01
5.39
5.93
6.58
7.33
8.16
9.07
9.99
10.78
11.35
11.58
11.46
11.06
10.48
9.82
9.16
8.55
8.03
7.66
7.48
7.46
7.51
7.44
7.03
6.14
4.79
3.20
1.66
0.45
-0.36
-0.83
-1.23
-1.85
-2.89
-4.37
-6.17
-8.02
-9.62
-10.66
-10.87
-10.08
-8.30
-5.72
-2.72
0.22
2.64
4.30
5.14
5.33
5.13
4.79
4.49
4.31
4.28
4.36
4.49
4.61
4.64
4.55
4.35
4.09
3.84
3.62
3.40
3.12
2.69
2.12
1.45
0.72
-0.02
-0.83
-1.76
-2.82
-3.95
-4.98
-5.75
-6.18
-6.34
-6.38
-6.52
-6.92
-7.64
-8.64
-9.84
-11.16
-12.55
-13.95
-15.22
-16.14
-16.48
-16.04
-14.74
-12.69
-10.15
-7.48
-4.99
-2.86
-1.11
0.34
1.62
2.82
3.93
4.91
5.64
6.07
6.18
6.04
5.70
5.26
4.77
4.32
3.99
3.85
3.94
4.22
4.62
5.05
5.39
5.62
5.70
5.61
5.33
4.82
4.08
3.17
2.19
1.23
0.35
-0.46
-1.24
-2.00
-2.67
-3.26
-3.76
-4.27
-4.94
-5.80
-6.82
-7.82
-8.59
-8.91
-8.65
-7.75
-6.23
-4.20
-1.84
0.63
2.99
5.09
6.85
8.30
9.49
10.42
11.12
11.60
11.93
12.16
12.35
12.52
12.63
12.71
12.72
12.69
12.60
12.40
12.01
11.39
10.54
9.56
8.62
7.81
7.20
6.77
6.41
6.03
5.48
4.66
3.50
2.06
0.47
-1.05
-2.30
-3.22
-3.84
-4.31
-4.77
-5.36
-6.17
-7.27
-8.69
-10.40
-12.27
-14.03
-15.33
-15.87
-15.47
-14.15
-12.15
-9.76
-7.33
-5.11
-3.28
-1.90
-0.96
-0.37
-0.05
0.08
0.04
-0.20
-0.60
-1.11
-1.64
-2.08
-2.40
-2.61
-2.78
-2.93
-3.05
-3.11
-3.09
-3.05
-3.05
-3.15
-3.37
-3.66
-3.98
-4.30
-4.63
-4.98
-5.34
-5.63
-5.81
-5.84
-5.73
-5.57
-5.44
-5.52
-5.91
-6.66
-7.75
-9.02
-10.25
-11.17
-11.52
-11.11
-9.88
-7.84
-5.15
-2.10
0.99
3.77
5.95
7.40
8.14
8.33
8.18
7.92
7.72
7.68
7.80
8.00
8.18
8.27
8.30
8.37
8.58
8.97
9.50
10.01
10.32
10.29
9.93
9.27
8.41
7.39
6.25
5.05
3.84
2.75
1.86
1.15
0.54
-0.07
-0.77
-1.52
-2.24
-2.84
-3.26
-3.58
-3.92
-4.41
-5.14
-6.09
-7.14
-8.09
-8.70
-8.72
-8.00
-6.50
-4.31
-1.66
1.17
3.89
6.26
8.11
9.38
10.13
10.51
10.67
10.77
10.88
10.95
10.93
10.80
10.62
10.46
10.43
10.51
10.63
10.63
10.40
9.90
9.17
8.34
7.49
6.66
5.80
4.84
3.71
2.40
1.02
-0.26
-1.30
-2.08
-2.70
-3.31
-4.06
-4.95
-5.88
-6.70
-7.28
-7.64
-7.94
-8.42
-9.27
-10.58
-12.24
-13.97
-15.44
-16.32
-16.41
-15.70
-14.30
-12.40
-10.22
-7.95
-5.80
-3.88
-2.31
-1.13
-0.30
0.29
0.76
1.18
1.56
1.88
2.12
2.34
2.59
2.93
3.36
3.84
4.26
4.48
4.46
4.18
3.72
3.18
2.65
2.17
1.70
1.17
0.49
-0.36
-1.28
-2.13
-2.83
-3.35
-3.81
-4.34
-5.00
-5.79
-6.61
-7.40
-8.17
-8.99
-9.92
-10.92
-11.80
-12.29
-12.12
-11.17
-9.47
-7.17
-4.48
-1.65
1.06
3.41
5.21
6.37
7.01
7.30
7.45
7.60
7.75
7.80
7.70
7.49
7.27
7.14
7.15
7.21
7.22
7.10
6.86
6.56
6.28
6.00
5.66
5.19
4.56
3.82
3.03
2.28
1.52
0.74
-0.13
-1.06
-1.98
-2.78
-3.38
-3.79
-4.06
-4.27
-4.52
-4.88
-5.40
-6.12
-6.97
-7.81
-8.40
-8.43
-7.64
-5.89
-3.28
-0.13
3.12
6.04
8.32
9.86
10.71
11.04
11.05
10.90
10.72
10.54
10.36
10.13
9.81
9.43
9.01
8.63
8.38
8.28
8.30
8.32
8.26
8.07
7.76
7.38
6.94
6.40
5.72
4.89
3.96
3.05
2.25
1.58
0.97
0.30
-0.55
-1.57
-2.65
-3.63
-4.34
-4.75
-4.94
-5.11
-5.49
-6.27
-7.48
-9.01
-10.58
-11.88
-12.65
-12.71
-12.02
-10.65
-8.77
-6.62
-4.48
-2.59
-1.14
-0.21
0.27
0.45
0.52
0.65
0.88
1.20
1.54
1.80
1.95
1.97
1.90
1.80
1.73
1.74
1.85
2.03
2.22
2.30
2.18
1.82
1.27
0.67
0.15
-0.20
-0.39
-0.54
-0.79
-1.28
-2.06
-3.08
-4.17
-5.14
-5.83
-6.23
-6.46
-6.73
-7.24
-8.06
-9.14
-10.28
-11.26
-11.89
-12.02
-11.58
-10.50
-8.80
-6.59
-4.10
-1.61
0.61
2.43
3.82
4.89
5.71
6.28
6.52
6.36
5.83
5.11
4.47
4.12
4.16
4.53
5.07
5.63
6.13
6.60
7.07
7.51
7.80
7.80
7.42
6.68
5.71
4.67
3.70
2.86
2.14
1.51
0.94
0.42
-0.10
-0.63
-1.21
-1.84
-2.50
-3.15
-3.73
-4.25
-4.80
-5.47
-6.38
-7.57
-8.96
-10.37
-11.54
-12.16
-12.00
-10.97
-9.14
-6.71
-4.01
-1.31
1.20
3.40
5.29
6.89
8.23
9.29
10.08
10.60
10.91
11.11
11.29
11.54
11.87
12.25
12.59
12.80
12.87
12.87
12.88
12.92
12.93
12.74
12.22
11.33
10.19
8.96
7.77
6.66
5.56
4.43
3.28
2.23
1.40
0.87
0.55
0.24
-0.20
-0.85
-1.66
-2.48
-3.28
-4.09
-5.09
-6.43
-8.19
-10.27
-12.40
-14.26
-15.48
-15.84
-15.23
-13.67
-11.34
-8.51
-5.53
-2.75
-0.45
1.23
2.27
2.74
2.80
2.58
2.23
1.85
1.51
1.26
1.18
1.27
1.53
1.87
2.15
2.25
2.06
1.62
1.08
0.68
0.53
0.61
0.78
0.79
0.53
0.00
-0.62
-1.18
-1.53
-1.72
-1.86
-2.06
-2.42
-2.97
-3.65
-4.42
-5.23
-6.08
-7.02
-8.07
-9.24
-10.45
-11.54
-12.29
-12.52
-12.13
-11.12
-9.65
-7.87
-5.94
-3.95
-2.00
-0.15
1.50
2.86
3.88
4.55
4.86
4.88
4.72
4.51
4.42
4.54
4.89
5.39
5.92
6.36
6.63
6.76
6.81
6.84
6.89
6.96
7.02
7.03
6.93
6.66
6.22
5.64
4.96
4.26
3.54
2.78
1.93
0.97
-0.05
-1.04
-1.91
-2.61
-3.14
-3.59
-4.04
-4.59
-5.26
-6.04
-6.83
-7.45
-7.65
-7.21
-6.05
-4.22
-1.95
0.45
2.68
4.52
5.84
6.62
6.97
7.00
6.91
6.83
6.86
7.01
7.18
7.26
7.20
7.02
6.77
6.51
6.22
5.84
5.30
4.57
3.71
2.81
1.95
1.19
0.49
-0.23
-1.03
-1.93
-2.93
-3.97
-5.00
-6.01
-7.02
-8.03
-9.04
-10.01
-10.80
-11.34
-11.56
-11.49
-11.27
-11.12
-11.22
-11.70
-12.52
-13.48
-14.30
-14.66
-14.36
-13.32
-11.63
-9.49
-7.14
-4.77
-2.53
-0.56
1.05
2.18
2.80
2.99
3.01
3.10
3.46
4.12
4.90
5.56
5.93
6.02
5.98
5.99
6.15
6.38
6.56
6.57
6.45
6.29
6.24
6.38
6.62
6.82
6.79
6.47
5.87
5.10
4.29
3.51
2.78
2.03
1.16
0.13
-1.02
-2.18
-3.23
-4.13
-5.00
-5.99
-7.24
-8.70
-10.15
-11.25
-11.68
-11.34
-10.29
-8.72
-6.84
-4.79
-2.67
-0.55
1.43
3.12
4.41
5.25
5.74
6.03
6.25
6.51
6.78
7.06
7.29
7.48
7.65
7.87
8.17
8.53
8.93
9.26
9.46
9.49
9.35
9.11
8.86
8.60
8.31
7.90
7.24
6.28
5.04
3.64
2.22
0.97
-0.02
-0.69
-1.08
-1.30
-1.47
-1.74
-2.22
-2.99
-4.10
-5.52
-7.18
-8.91
-10.52
-11.78
-12.50
-12.52
-11.82
-10.49
-8.74
-6.86
-5.14
-3.80
-2.94
-2.49
-2.35
-2.36
-2.43
-2.52
-2.66
-2.86
-3.13
-3.40
-3.57
-3.58
-3.40
-3.07
-2.70
-2.38
-2.18
-2.12
-2.17
-2.29
-2.44
-2.61
-2.84
-3.15
-3.59
-4.16
-4.86
-5.62
-6.36
-6.99
-7.40
-7.54
-7.45
-7.18
-6.84
-6.59
-6.54
-6.78
-7.34
-8.14
-8.99
-9.58
-9.59
-8.76
-7.01
-4.47
-1.51
1.43
3.97
5.89
7.16
7.91
8.31
8.50
8.53
8.39
8.14
7.90
7.84
8.04
8.45
8.85
8.92
8.39
7.17
5.36
3.20
0.89
-1.51
-4.06
-6.98
-10.37
-14.26
-18.61
-23.32
-28.38
-33.79
-39.53
-45.50
-51.54
-57.53
-63.40
-69.11
-74.54
-79.25
-82.61
-83.85
-82.43
-78.19
-71.39
-62.63
-52.60
-41.86
-30.73
-19.29
-7.45
4.89
17.71
30.72
43.37
54.96
64.72
72.03
76.40
77.53
75.25
69.58
60.87
49.83
37.57
25.37
14.39
5.48
-0.97
-4.85
-6.29
-5.58
-3.22
0.13
3.69
6.84
9.39
11.60
13.99
16.96
20.48
23.97
26.66
27.90
27.53
25.85
23.41
20.68
17.85
14.94
11.96
9.03
6.40
4.30
2.81
1.79
0.93
-0.04
-1.26
-2.66
-3.96
-4.85
-5.05
-4.47
-3.19
-1.46
0.39
2.11
3.54
4.62
5.42
6.02
6.55
7.15
7.93
8.91
10.03
11.14
12.07
12.74
13.19
13.53
13.85
14.15
14.32
14.30
14.04
13.64
13.22
12.81
12.36
11.69
10.60
9.05
7.13
5.07
3.09
1.37
-0.11
-1.44
-2.76
-4.19
-5.85
-7.79
-10.00
-12.35
-14.59
-16.39
-17.43
-17.50
-16.61
-14.92
-12.71
-10.29
-7.87
-5.56
-3.44
-1.59
-0.09
0.93
1.41
1.41
1.07
0.63
0.31
0.21
0.34
0.61
0.94
1.29
1.65
2.04
2.39
2.62
2.65
2.47
2.17
1.90
1.76
1.72
1.66
1.42
0.91
0.20
-0.53
-1.08
-1.36
-1.43
-1.51
-1.86
-2.64
-3.87
-5.38
-6.92
-8.21
-9.02
-9.23
-8.77
-7.65
-5.90
-3.65
-1.14
1.32
3.41
4.93
5.84
6.27
6.43
6.50
6.57
6.65
6.71
6.79
6.96
7.23
7.59
7.95
8.24
8.41
8.51
8.58
8.65
8.68
8.52
8.05
7.23
6.12
4.86
3.59
2.42
1.38
0.40
-0.59
-1.66
-2.80
-3.96
-5.07
-6.13
-7.16
-8.25
-9.38
-10.44
-11.19
-11.38
-10.83
-9.57
-7.79
-5.75
-3.71
-1.79
-0.05
1.55
2.96
4.17
5.13
5.84
6.35
6.73
7.05
7.36
7.74
8.23
8.87
9.65
10.45
11.13
11.52
11.53
11.20
10.62
9.94
9.28
8.69
8.13
7.54
6.83
5.95
4.87
3.61
2.20
0.73
-0.75
-2.18
-3.52
-4.80
-6.08
-7.45
-8.96
-10.61
-12.26
-13.69
-14.60
-14.78
-14.13
-12.72
-10.76
-8.50
-6.19
-3.99
-1.96
-0.16
1.42
2.75
3.84
4.71
5.39
5.92
6.34
6.67
6.90
7.00
6.98
6.87
6.71
6.60
6.55
6.57
6.62
6.64
6.60
6.49
6.32
6.05
5.65
5.08
4.31
3.40
2.45
1.59
0.89
0.34
-0.13
-0.68
-1.45
-2.54
-3.94
-5.57
-7.30
-8.89
-10.14
-10.84
-10.84
-10.10
-8.72
-6.82
-4.67
-2.47
-0.38
1.49
3.08
4.37
5.34
5.96
6.25
6.24
6.02
5.69
5.36
5.16
5.17
5.40
5.81
6.27
6.70
7.04
7.29
7.47
7.56
7.43
6.94
6.02
4.72
3.24
1.82
0.61
-0.38
-1.23
-2.08
-2.98
-3.85
-4.59
-5.12
-5.53
-5.98
-6.66
-7.71
-9.08
-10.61
-12.03
-13.07
-13.52
-13.30
-12.42
-11.01
-9.26
-7.37
-5.48
-3.69
-2.06
-0.59
0.67
1.73
2.57
3.21
3.67
4.05
4.45
4.92
5.54
6.29
7.11
7.94
8.69
9.28
9.63
9.67
9.38
8.77
7.94
7.04
6.19
5.49
4.94
4.47
3.93
3.26
2.40
1.40
0.35
-0.63
-1.45
-2.09
-2.62
-3.18
-3.90
-4.87
-6.10
-7.44
-8.67
-9.55
-9.89
-9.58
-8.66
-7.19
-5.33
-3.23
-1.06
0.99
2.79
4.28
5.48
6.46
7.27
7.91
8.30
8.39
8.19
7.81
7.48
7.38
7.64
8.20
8.87
9.45
9.76
9.76
9.48
8.99
8.32
7.50
6.56
5.57
4.64
3.89
3.32
2.86
2.29
1.44
0.23
-1.25
-2.79
-4.12
-5.11
-5.73
-6.15
-6.55
-7.12
-7.95
-8.99
-10.14
-11.22
-12.02
-12.31
-11.91
-10.71
-8.75
-6.24
-3.52
-0.98
1.03
2.31
2.85
2.78
2.40
2.00
1.85
2.10
2.73
3.63
4.59
5.42
6.00
6.35
6.56
6.76
7.08
7.55
8.07
8.50
8.67
8.50
8.06
7.50
6.99
6.65
6.44
6.26
5.97
5.48
4.80
4.04
3.27
2.57
1.96
1.42
0.93
0.45
-0.10
-0.85
-1.85
-3.12
-4.54
-5.86
-6.81
-7.11
-6.58
-5.22
-3.22
-0.89
1.40
3.32
4.72
5.60
6.08
6.33
6.45
6.46
6.31
5.98
5.53
5.10
4.80
4.71
4.83
5.05
5.30
5.48
5.56
5.53
5.40
5.19
4.92
4.62
4.31
3.96
3.56
3.05
2.42
1.64
0.73
-0.30
-1.38
-2.45
-3.42
-4.21
-4.83
-5.36
-5.94
-6.69
-7.71
-9.01
-10.51
-12.05
-13.45
-14.47
-14.93
-14.70
-13.75
-12.21
-10.27
-8.20
-6.23
-4.52
-3.15
-2.10
-1.32
-0.73
-0.26
0.09
0.31
0.34
0.17
-0.17
-0.56
-0.87
-0.96
-0.77
-0.32
0.28
0.90
1.44
1.83
2.05
2.07
1.90
1.53
0.96
0.24
-0.58
-1.36
-2.00
-2.37
-2.49
-2.46
-2.45
-2.59
-2.91
-3.30
-3.64
-3.87
-4.10
-4.57
-5.48
-6.87
-8.56
-10.15
-11.21
-11.47
-10.86
-9.52
-7.67
-5.54
-3.30
-1.12
0.93
2.75
4.29
5.52
6.49
7.25
7.86
8.37
8.76
9.00
9.07
8.94
8.68
8.42
8.24
8.24
8.39
8.63
8.83
8.92
8.89
8.79
8.63
8.39
8.03
7.45
6.65
5.66
4.58
3.50
2.51
1.66
0.94
0.32
-0.29
-0.97
-1.78
-2.77
-3.96
-5.33
-6.83
-8.42
-10.02
-11.54
-12.82
-13.64
-13.83
-13.30
-12.06
-10.29
-8.22
-6.08
-4.10
-2.43
-1.13
-0.22
0.38
0.79
1.13
1.52
1.98
2.46
2.90
3.21
3.39
3.49
3.57
3.66
3.76
3.82
3.78
3.64
3.39
3.11
2.88
2.75
2.68
2.55
2.23
1.58
0.67
-0.35
-1.24
-1.83
-2.14
-2.34
-2.68
-3.35
-4.39
-5.69
-7.09
-8.45
-9.69
-10.77
-11.67
-12.33
-12.69
-12.74
-12.44
-11.77
-10.70
-9.25
-7.51
-5.68
-4.02
-2.73
-1.86
-1.26
-0.70
0.04
1.04
2.21
3.42
4.51
5.43
6.20
6.85
7.42
7.90
8.24
8.36
8.23
7.86
7.35
6.82
6.39
6.10
5.93
5.77
5.50
5.07
4.47
3.79
3.09
2.42
1.78
1.16
0.50
-0.25
-1.11
-2.13
-3.25
-4.42
-5.56
-6.67
-7.87
-9.30
-11.04
-13.02
-14.96
-16.47
-17.19
-16.97
-15.89
-14.23
-12.30
-10.31
-8.36
-6.45
-4.59
-2.80
-1.14
0.34
1.63
2.79
3.86
4.83
5.64
6.25
6.63
6.84
6.97
7.14
7.40
7.70
7.98
8.20
8.33
8.39
8.38
8.30
8.12
7.82
7.44
7.05
6.74
6.53
6.34
6.05
5.54
4.74
3.74
2.66
1.64
0.69
-0.21
-1.16
-2.22
-3.35
-4.51
-5.70
-6.97
-8.39
-9.98
-11.60
-12.98
-13.79
-13.81
-13.00
-11.61
-9.99
-8.50
-7.32
-6.46
-5.75
-4.97
-4.02
-2.94
-1.85
-0.94
-0.23
0.37
1.11
2.19
3.67
5.38
7.07
8.45
9.40
9.93
10.18
10.28
10.33
10.34
10.27
10.11
9.80
9.34
8.73
8.05
7.38
6.80
6.33
5.88
5.32
4.50
3.38
2.01
0.49
-1.11
-2.74
-4.36
-5.92
-7.31
-8.48
-9.50
-10.53
-11.79
-13.40
-15.26
-17.01
-18.20
-18.43
-17.52
-15.56
-12.88
-9.87
-6.93
-4.25
-1.91
0.09
1.84
3.35
4.64
5.76
6.76
7.71
8.68
9.62
10.46
11.13
11.60
11.90
12.07
12.16
12.16
12.06
11.86
11.62
11.38
11.19
11.06
10.96
10.81
10.56
10.14
9.54
8.77
7.88
6.91
5.89
4.82
3.65
2.38
1.09
-0.08
-0.99
-1.60
-2.02
-2.51
-3.30
-4.54
-6.13
-7.85
-9.39
-10.51
-11.05
-10.98
-10.36
-9.27
-7.76
-5.93
-3.84
-1.62
0.59
2.62
4.38
5.82
6.98
7.97
8.82
9.54
10.03
10.19
10.02
9.65
9.29
9.16
9.32
9.67
10.05
10.27
10.29
10.16
9.95
9.70
9.36
8.86
8.20
7.48
6.86
6.47
6.28
6.04
5.47
4.38
2.81
1.04
-0.55
-1.70
-2.37
-2.73
-3.08
-3.65
-4.59
-5.88
-7.41
-9.10
-10.80
-12.32
-13.40
-13.79
-13.33
-12.09
-10.31
-8.31
-6.43
-4.86
-3.64
-2.77
-2.19
-1.83
-1.65
-1.54
-1.39
-1.14
-0.83
-0.50
-0.24
-0.04
0.20
0.57
1.13
1.87
2.67
3.39
3.89
4.07
3.92
3.44
2.71
1.82
0.86
-0.11
-1.06
-1.95
-2.76
-3.44
-3.97
-4.40
-4.81
-5.33
-6.05
-6.93
-7.83
-8.59
-9.16
-9.58
-10.03
-10.64
-11.46
-12.33
-12.95
-13.05
-12.43
-11.09
-9.16
-6.90
-4.60
-2.52
-0.84
0.36
1.12
1.61
1.97
2.37
2.83
3.32
3.81
4.26
4.71
5.17
5.65
6.10
6.47
6.70
6.82
6.92
7.10
7.41
7.76
8.02
8.00
7.58
6.77
5.73
4.70
3.90
3.45
3.32
3.34
3.33
3.14
2.75
2.19
1.56
0.90
0.23
-0.49
-1.35
-2.37
-3.58
-4.91
-6.32
-7.70
-8.96
-9.91
-10.40
-10.30
-9.49
-8.00
-5.93
-3.53
-1.08
1.13
2.88
4.08
4.79
5.16
5.42
5.74
6.19
6.73
7.24
7.58
7.68
7.58
7.38
7.21
7.16
7.23
7.36
7.47
7.52
7.53
7.53
7.48
7.34
7.02
6.45
5.63
4.63
3.56
2.52
1.58
0.71
-0.12
-0.99
-1.97
-3.10
-4.36
-5.70
-7.02
-8.31
-9.55
-10.74
-11.87
-12.91
-13.72
-14.12
-13.96
-13.16
-11.75
-9.92
-7.94
-6.04
-4.38
-3.03
-1.93
-1.05
-0.32
0.28
0.71
0.98
1.06
1.00
0.84
0.68
0.55
0.53
0.65
0.91
1.29
1.75
2.21
2.58
2.75
2.63
2.18
1.49
0.67
-0.07
-0.62
-0.95
-1.13
-1.30
-1.59
-2.06
-2.68
-3.34
-3.93
-4.40
-4.77
-5.13
-5.61
-6.30
-7.21
-8.27
-9.30
-10.07
-10.38
-10.08
-9.14
-7.65
-5.78
-3.73
-1.71
0.08
1.51
2.48
3.01
3.16
3.11
3.03
3.08
3.28
3.59
3.91
4.14
4.26
4.35
4.50
4.77
5.17
5.63
6.05
6.35
6.50
6.51
6.45
6.35
6.26
6.20
6.14
6.06
5.89
5.58
5.07
4.35
3.46
2.45
1.41
0.40
-0.56
-1.51
-2.53
-3.72
-5.14
-6.78
-8.47
-9.99
-11.03
-11.33
-10.76
-9.33
-7.25
-4.83
-2.46
-0.44
1.07
2.06
2.65
3.01
3.27
3.46
3.55
3.49
3.25
2.83
2.31
1.73
1.15
0.63
0.25
0.03
0.01
0.12
0.25
0.30
0.20
-0.03
-0.28
-0.49
-0.66
-0.86
-1.21
-1.80
-2.61
-3.58
-4.55
-5.40
-6.10
-6.65
-7.14
-7.66
-8.24
-8.86
-9.55
-10.29
-11.13
-12.11
-13.19
-14.19
-14.78
-14.62
-13.49
-11.39
-8.66
-5.76
-3.19
-1.24
0.06
0.83
1.31
1.67
2.03
2.43
2.89
3.38
3.89
4.35
4.72
4.98
5.19
5.42
5.73
6.14
6.57
6.97
7.28
7.47
7.52
7.40
7.03
6.38
5.48
4.44
3.39
2.45
1.63
0.90
0.19
-0.57
-1.36
-2.15
-2.91
-3.66
-4.51
-5.59
-6.97
-8.64
-10.47
-12.19
-13.48
-14.04
-13.68
-12.40
-10.40
-7.97
-5.45
-3.13
-1.15
0.47
1.84
3.09
4.28
5.39
6.33
7.00
7.37
7.49
7.48
7.43
7.42
7.39
7.30
7.12
6.93
6.86
7.03
7.47
8.11
8.79
9.31
9.50
9.32
8.82
8.14
7.46
6.93
6.60
6.46
6.42
6.41
6.33
6.14
5.80
5.30
4.61
3.69
2.51
1.05
-0.67
-2.61
-4.62
-6.48
-7.96
-8.84
-9.02
-8.51
-7.41
-5.84
-3.94
-1.84
0.31
2.36
4.14
5.52
6.46
7.00
7.23
7.29
7.26
7.20
7.13
7.07
7.02
6.98
6.93
6.84
6.70
6.53
6.33
6.09
5.76
5.28
4.59
3.69
2.66
1.64
0.71
-0.09
-0.82
-1.55
-2.37
-3.28
-4.23
-5.17
-6.03
-6.83
-7.60
-8.35
-9.08
-9.74
-10.37
-11.03
-11.84
-12.88
-14.10
-15.29
-16.18
-16.48
-16.05
-14.93
-13.34
-11.55
-9.80
-8.22
-6.85
-5.65
-4.62
-3.76
-3.06
-2.54
-2.15
-1.80
-1.42
-0.96
-0.40
0.23
0.94
1.72
2.59
3.53
4.48
5.29
5.80
5.89
5.52
4.74
3.69
2.53
1.42
0.48
-0.24
-0.69
-0.92
-1.06
-1.27
-1.72
-2.46
-3.45
-4.49
-5.45
-6.24
-6.95
-7.75
-8.77
-10.03
-11.38
-12.54
-13.21
-13.15
-12.30
-10.71
-8.55
-6.02
-3.34
-0.75
1.58
3.53
5.08
6.31
7.34
8.31
9.29
10.24
11.13
11.91
12.57
13.11
13.48
13.61
13.45
13.05
12.53
12.09
11.86
11.82
11.85
11.73
11.35
10.73
10.04
9.47
9.12
8.92
8.74
8.37
7.71
6.73
5.49
4.10
2.71
1.44
0.37
-0.46
-1.11
-1.71
-2.47
-3.60
-5.22
-7.26
-9.44
-11.30
-12.42
-12.51
-11.55
-9.77
-7.56
-5.30
-3.26
-1.53
-0.11
1.06
2.06
2.94
3.69
4.30
4.73
4.95
4.96
4.74
4.37
3.92
3.48
3.17
3.07
3.23
3.58
4.00
4.28
4.29
4.00
3.46
2.77
2.05
1.30
0.50
-0.42
-1.50
-2.68
-3.89
-5.01
-5.94
-6.67
-7.26
-7.79
-8.40
-9.21
-10.24
-11.50
-12.96
-14.57
-16.23
-17.74
-18.79
-19.03
-18.21
-16.29
-13.55
-10.46
-7.53
-5.15
-3.47
-2.40
-1.72
-1.21
-0.70
-0.11
0.56
1.28
1.94
2.51
2.93
3.21
3.42
3.62
3.88
4.24
4.71
5.24
5.77
6.26
6.65
6.95
7.18
7.38
7.53
7.63
7.59
7.33
6.78
5.95
4.89
3.73
2.63
1.72
1.08
0.66
0.31
-0.15
-0.90
-2.03
-3.56
-5.39
-7.33
-9.13
-10.50
-11.16
-10.90
-9.70
-7.72
-5.27
-2.74
-0.44
1.43
2.87
3.95
4.82
5.60
6.28
6.87
7.35
7.75
8.16
8.65
9.22
9.79
10.25
10.48
10.52
10.43
10.38
10.44
10.65
10.90
11.07
11.05
10.78
10.28
9.57
8.70
7.70
6.62
5.51
4.39
3.29
2.20
1.14
0.11
-0.87
-1.78
-2.63
-3.51
-4.55
-5.88
-7.57
-9.54
-11.58
-13.33
-14.43
-14.65
-13.92
-12.40
-10.36
-8.17
-6.07
-4.24
-2.69
-1.41
-0.29
0.70
1.54
2.19
2.54
2.53
2.15
1.51
0.80
0.25
0.04
0.20
0.63
1.12
1.49
1.66
1.66
1.58
1.52
1.47
1.37
1.12
0.72
0.25
-0.18
-0.52
-0.76
-1.03
-1.45
-2.08
-2.91
-3.86
-4.86
-5.88
-6.95
-8.12
-9.46
-10.95
-12.56
-14.17
-15.62
-16.73
-17.29
-17.15
-16.22
-14.60
-12.48
-10.13
-7.82
-5.69
-3.85
-2.31
-1.04
-0.01
0.82
1.48
2.02
2.46
2.82
3.14
3.46
3.77
4.09
4.40
4.69
4.95
5.24
5.62
6.14
6.80
7.47
7.98
8.20
8.11
7.79
7.38
6.97
6.59
6.19
5.73
5.20
4.66
4.16
3.74
3.36
2.96
2.46
1.82
0.99
-0.04
-1.33
-2.90
-4.69
-6.53
-8.13
-9.13
-9.20
-8.22
-6.26
-3.65
-0.81
1.86
4.07
5.73
6.95
7.89
8.71
9.48
10.20
10.82
11.32
11.68
11.93
12.11
12.24
12.32
12.33
12.24
12.04
11.77
11.48
11.21
10.97
10.71
10.32
9.70
8.80
7.68
6.50
5.42
4.55
3.84
3.17
2.36
1.32
0.03
-1.43
-2.95
-4.37
-5.59
-6.56
-7.31
-7.97
-8.72
-9.78
-11.25
-13.09
-15.05
-16.73
-17.79
-17.99
-17.29
-15.86
-13.96
-11.87
-9.84
-8.03
-6.53
-5.39
-4.54
-3.92
-3.43
-3.02
-2.68
-2.42
-2.27
-2.19
-2.15
-2.07
-1.90
-1.67
-1.48
-1.42
-1.50
-1.67
-1.78
-1.72
-1.44
-1.05
-0.70
-0.57
-0.70
-1.02
-1.39
-1.70
-1.88
-2.01
-2.19
-2.51
-2.93
-3.35
-3.68
-3.87
-3.97
-4.18
-4.70
-5.70
-7.16
-8.89
-10.47
-11.47
-11.52
-10.46
-8.42
-5.76
-2.92
-0.24
2.04
3.92
5.44
6.69
7.68
8.40
8.84
9.08
9.20
9.32
9.51
9.74
9.89
9.82
9.45
8.81
8.02
7.20
6.44
5.70
4.95
4.12
3.23
2.37
1.64
1.06
0.58
0.09
-0.49
-1.18
-1.88
-2.53
-3.14
-3.80
-4.67
-5.78
-7.05
-8.27
-9.20
-9.77
-10.07
-10.35
-10.92
-11.96
-13.44
-15.10
-16.53
-17.35
-17.28
-16.25
-14.33
-11.76
-8.82
-5.84
-3.06
-0.62
1.43
3.18
4.72
6.11
7.38
8.47
9.31
9.87
10.20
10.40
10.57
10.75
10.91
11.02
11.05
11.03
11.00
11.02
11.10
11.22
11.32
11.30
11.09
10.69
10.11
9.45
8.77
8.12
7.48
6.78
5.92
4.86
3.64
2.38
1.17
0.09
-0.86
-1.72
-2.57
-3.49
-4.57
-5.83
-7.31
-8.90
-10.42
-11.56
-12.02
-11.59
-10.23
-8.17
-5.73
-3.26
-1.01
0.97
2.70
4.28
5.74
7.03
8.05
8.76
9.16
9.35
9.46
9.58
9.73
9.94
10.18
10.46
10.80
11.18
11.52
11.69
11.61
11.23
10.60
9.81
8.95
8.02
6.99
5.81
4.46
3.01
1.52
0.10
-1.26
-2.58
-3.90
-5.22
-6.49
-7.62
-8.57
-9.32
-9.96
-10.61
-11.42
-12.50
-13.88
-15.47
-17.05
-18.35
-19.06
-18.98
-18.02
-16.24
-13.82
-10.96
-7.90
-4.86
-2.08
0.25
2.04
3.34
4.27
4.98
5.56
5.99
6.24
6.31
6.30
6.34
6.54
6.92
7.39
7.78
7.98
7.93
7.63
7.12
6.44
5.62
4.69
3.69
2.68
1.74
0.88
0.05
-0.84
-1.92
-3.26
-4.81
-6.37
-7.71
-8.60
-9.01
-9.13
-9.24
-9.65
-10.48
-11.69
-13.03
-14.24
-15.07
-15.39
-15.16
-14.34
-12.95
-11.01
-8.62
-6.01
-3.45
-1.20
0.56
1.80
2.62
3.21
3.73
4.31
4.94
5.55
6.06
6.44
6.72
7.00
7.32
7.66
7.95
8.10
8.07
7.92
7.75
7.67
7.69
7.70
7.56
7.17
6.51
5.67
4.76
3.83
2.91
2.00
1.12
0.35
-0.17
-0.39
-0.33
-0.17
-0.15
-0.47
-1.23
-2.42
-3.91
-5.54
-7.07
-8.27
-8.85
-8.60
-7.42
-5.41
-2.86
-0.11
2.49
4.71
6.48
7.83
8.82
9.58
10.18
10.71
11.21
11.68
12.10
12.42
12.62
12.71
12.78
12.85
12.97
13.09
13.14
13.09
12.88
12.47
11.85
11.03
10.02
8.90
7.72
6.55
5.41
4.28
3.16
2.03
0.93
-0.08
-0.97
-1.75
-2.53
-3.38
-4.40
-5.61
-6.97
-8.45
-10.07
-11.83
-13.68
-15.49
-16.97
-17.82
-17.79
-16.85
-15.19
-13.14
-11.07
-9.18
-7.55
-6.12
-4.87
-3.83
-3.07
-2.65
-2.52
-2.57
-2.64
-2.63
-2.50
-2.25
-1.90
-1.45
-0.91
-0.31
0.26
0.70
0.90
0.77
0.30
-0.43
-1.29
-2.10
-2.73
-3.12
-3.31
-3.48
-3.79
-4.33
-5.07
-5.86
-6.56
-7.07
-7.43
-7.79
-8.29
-9.03
-10.04
-11.25
-12.55
-13.75
-14.64
-14.96
-14.49
-13.12
-10.93
-8.21
-5.36
-2.78
-0.69
0.90
2.10
3.11
4.03
4.89
5.68
6.37
7.01
7.60
8.16
8.68
9.10
9.43
9.65
9.81
9.96
10.11
10.25
10.29
10.12
9.64
8.83
7.77
6.60
5.55
4.74
4.23
3.91
3.58
3.06
2.26
1.23
0.11
-0.90
-1.68
-2.21
-2.57
-2.93
-3.49
-4.39
-5.67
-7.19
-8.69
-9.80
-10.17
-9.55
-7.91
-5.43
-2.44
0.64
3.47
5.84
7.66
9.00
9.99
10.73
11.33
11.84
12.25
12.58
12.83
13.02
13.18
13.31
13.44
13.53
13.55
13.45
13.19
12.81
12.35
11.90
11.48
11.06
10.57
9.89
8.99
7.88
6.66
5.44
4.28
3.19
2.12
1.00
-0.23
-1.56
-2.94
-4.33
-5.75
-7.26
-8.97
-10.91
-13.05
-15.17
-16.97
-18.17
-18.58
-18.20
-17.16
-15.66
-13.89
-11.94
-9.93
-7.94
-6.12
-4.61
-3.49
-2.77
-2.30
-1.92
-1.45
-0.82
-0.05
0.80
1.64
2.42
3.08
3.59
3.93
4.10
4.13
4.05
3.94
3.86
3.81
3.79
3.72
3.49
3.03
2.28
1.29
0.14
-1.05
-2.25
-3.44
-4.66
-5.93
-7.22
-8.46
-9.63
-10.77
-11.96
-13.21
-14.37
-15.19
-15.38
-14.75
-13.30
-11.23
-8.85
-6.43
-4.20
-2.25
-0.65
0.60
1.49
2.07
2.44
2.69
2.94
3.29
3.80
4.47
5.25
6.06
6.79
7.36
7.75
7.97
8.06
8.07
8.02
7.91
7.73
7.46
7.04
6.42
5.52
4.34
2.93
1.41
-0.06
-1.35
-2.39
-3.16
-3.69
-4.03
-4.31
-4.72
-5.48
-6.82
-8.80
-11.29
-13.88
-16.07
-17.41
-17.62
-16.72
-14.91
-12.54
-9.96
-7.44
-5.13
-3.09
-1.29
0.32
1.75
3.00
4.07
4.97
5.76
6.49
7.21
7.94
8.67
9.33
9.92
10.41
10.82
11.16
11.44
11.69
11.93
12.16
12.33
12.35
12.08
11.46
10.52
9.45
8.49
7.79
7.38
7.10
6.76
6.18
5.31
4.26
3.20
2.27
1.49
0.80
0.07
-0.84
-2.04
-3.54
-5.27
-7.02
-8.49
-9.41
-9.55
-8.90
-7.60
-5.90
-4.02
-2.16
-0.40
1.20
2.63
3.87
4.94
5.90
6.83
7.76
8.66
9.45
10.06
10.45
10.63
10.66
10.55
10.33
10.02
9.68
9.38
9.18
9.05
8.88
8.50
7.77
6.68
5.35
3.99
2.78
1.79
0.92
0.03
-1.03
-2.25
-3.47
-4.51
-5.23
-5.67
-6.08
-6.76
-7.93
-9.63
-11.63
-13.54
-14.97
-15.68
-15.60
-14.85
-13.62
-12.12
-10.48
-8.76
-7.01
-5.26
-3.59
-2.14
-1.01
-0.23
0.23
0.50
0.72
0.97
1.29
1.61
1.91
2.24
2.63
3.09
3.53
3.78
3.70
3.28
2.66
2.09
1.74
1.57
1.38
0.94
0.08
-1.06
-2.23
-3.12
-3.60
-3.74
-3.78
-3.96
-4.45
-5.31
-6.42
-7.64
-8.82
-9.85
-10.62
-11.02
-10.94
-10.26
-8.94
-7.03
-4.72
-2.25
0.12
2.20
3.92
5.34
6.56
7.69
8.76
9.73
10.48
10.99
11.28
11.44
11.60
11.86
12.17
12.43
12.50
12.30
11.87
11.32
10.78
10.28
9.79
9.20
8.42
7.45
6.38
5.32
4.36
3.50
2.71
1.96
1.23
0.52
-0.18
-0.96
-1.90
-3.11
-4.61
-6.37
-8.24
-10.00
-11.35
-12.04
-11.91
-10.92
-9.27
-7.25
-5.20
-3.38
-1.87
-0.62
0.49
1.54
2.54
3.43
4.12
4.55
4.70
4.62
4.33
3.88
3.31
2.68
2.07
1.54
1.17
0.96
0.91
0.91
0.84
0.58
0.05
-0.73
-1.66
-2.61
-3.44
-4.04
-4.43
-4.64
-4.78
-4.95
-5.22
-5.64
-6.20
-6.91
-7.76
-8.72
-9.77
-10.88
-12.01
-13.08
-14.00
-14.61
-14.76
-14.32
-13.24
-11.52
-9.26
-6.65
-3.91
-1.34
0.80
2.34
3.26
3.70
3.91
4.14
4.55
5.16
5.88
6.65
7.42
8.21
9.01
9.74
10.27
10.49
10.43
10.20
10.02
10.01
10.17
10.31
10.20
9.67
8.72
7.48
6.08
4.60
2.97
1.11
-0.99
-3.19
-5.25
-6.98
-8.28
-9.24
-10.09
-11.07
-12.31
-13.78
-15.33
-16.70
-17.64
-17.93
-17.46
-16.22
-14.38
-12.20
-10.00
-7.99
-6.22
-4.60
-2.96
-1.17
0.73
2.62
4.33
5.76
6.92
7.85
8.61
9.21
9.61
9.83
9.96
10.12
10.47
11.04
11.77
12.49
13.03
13.24
13.08
12.59
11.84
10.95
10.01
9.08
8.22
7.43
6.71
6.03
5.36
4.65
3.88
3.09
2.28
1.47
0.61
-0.42
-1.71
-3.28
-5.03
-6.71
-8.03
-8.76
-8.77
-8.08
-6.81
-5.17
-3.35
-1.57
0.04
1.40
2.55
3.58
4.62
5.72
6.84
7.85
8.59
8.96
8.97
8.73
8.43
8.20
8.10
8.13
8.20
8.23
8.11
7.80
7.32
6.72
6.10
5.52
4.97
4.39
3.67
2.73
1.61
0.42
-0.70
-1.70
-2.60
-3.51
-4.51
-5.62
-6.76
-7.87
-8.96
-10.10
-11.43
-13.05
-14.89
-16.72
-18.17
-18.85
-18.50
-17.11
-14.93
-12.37
-9.87
-7.72
-6.02
-4.66
-3.50
-2.41
-1.39
-0.55
0.01
0.27
0.30
0.27
0.40
0.80
1.53
2.51
3.62
4.68
5.56
6.19
6.53
6.61
6.49
6.24
5.93
5.62
5.32
5.03
4.69
4.21
3.55
2.65
1.54
0.34
-0.84
-1.89
-2.74
-3.45
-4.09
-4.76
-5.54
-6.48
-7.59
-8.86
-10.27
-11.68
-12.90
-13.63
-13.64
-12.79
-11.15
-9.00
-6.70
-4.57
-2.79
-1.40
-0.30
0.62
1.43
2.13
2.70
3.12
3.40
3.58
3.71
3.84
4.01
4.22
4.47
4.79
5.20
5.69
6.24
6.75
7.11
7.22
7.00
6.49
5.78
5.02
4.29
3.63
3.01
2.38
1.69
0.94
0.13
-0.72
-1.65
-2.67
-3.77
-4.89
-5.95
-6.92
-7.86
-8.90
-10.18
-11.73
-13.41
-14.93
-15.91
-16.07
-15.31
-13.78
-11.79
-9.66
-7.62
-5.77
-4.08
-2.51
-1.08
0.15
1.10
1.76
2.23
2.68
3.24
3.93
4.67
5.32
5.78
6.05
6.24
6.50
6.92
7.49
8.09
8.53
8.66
8.45
7.99
7.43
6.93
6.55
6.24
5.89
5.37
4.65
3.76
2.81
1.87
0.98
0.12
-0.77
-1.71
-2.72
-3.77
-4.79
-5.77
-6.71
-7.65
-8.64
-9.65
-10.63
-11.40
-11.73
-11.45
-10.49
-8.95
-7.04
-5.05
-3.19
-1.57
-0.18
1.10
2.34
3.57
4.76
5.79
6.62
7.21
7.63
8.00
8.41
8.93
9.55
10.18
10.78
11.33
11.85
12.43
13.07
13.68
14.05
13.95
13.30
12.18
10.85
9.60
8.63
7.97
7.51
7.09
6.61
5.98
5.18
4.17
2.93
1.50
-0.02
-1.48
-2.72
-3.73
-4.63
-5.60
-6.81
-8.26
-9.77
-11.00
-11.64
-11.48
-10.56
-9.07
-7.34
-5.64
-4.17
-2.94
-1.87
-0.89
0.04
0.84
1.45
1.83
2.03
2.16
2.35
2.60
2.87
3.09
3.20
3.28
3.43
3.73
4.15
4.55
4.78
4.73
4.40
3.83
3.08
2.19
1.19
0.16
-0.78
-1.52
-2.03
-2.36
-2.65
-3.04
-3.57
-4.25
-5.02
-5.86
-6.81
-7.91
-9.15
-10.42
-11.54
-12.24
-12.36
-11.78
-10.55
-8.84
-6.89
-4.94
-3.19
-1.75
-0.67
0.09
0.62
1.06
1.52
2.08
2.76
3.47
4.11
4.56
4.84
4.99
5.10
5.23
5.35
5.37
5.20
4.75
4.06
3.19
2.28
1.41
0.63
-0.05
-0.63
-1.15
-1.60
-2.03
-2.45
-2.94
-3.51
-4.18
-4.94
-5.73
-6.56
-7.48
-8.61
-10.01
-11.62
-13.29
-14.69
-15.54
-15.61
-14.89
-13.51
-11.75
-9.81
-7.83
-5.86
-3.90
-2.06
-0.47
0.72
1.47
1.85
2.06
2.31
2.72
3.31
3.99
4.65
5.20
5.63
5.95
6.21
6.40
6.50
6.46
6.23
5.81
5.28
4.75
4.33
4.04
3.86
3.67
3.38
2.94
2.37
1.74
1.07
0.38
-0.37
-1.17
-2.01
-2.82
-3.64
-4.52
-5.55
-6.82
-8.31
-9.91
-11.38
-12.47
-12.97
-12.83
-12.09
-10.84
-9.20
-7.26
-5.14
-2.99
-0.95
0.79
2.11
3.01
3.59
4.07
4.68
5.55
6.62
7.72
8.65
9.30
9.69
9.98
10.32
10.76
11.22
11.53
11.56
11.29
10.83
10.30
9.80
9.29
8.74
8.14
7.53
6.97
6.50
6.10
5.65
5.02
4.16
3.07
1.89
0.76
-0.23
-1.03
-1.69
-2.31
-3.01
-3.85
-4.82
-5.71
-6.29
-6.30
-5.62
-4.35
-2.73
-1.07
0.37
1.49
2.32
2.95
3.48
3.92
4.23
4.41
4.48
4.49
4.51
4.60
4.80
5.12
5.55
6.00
6.37
6.52
6.40
5.99
5.37
4.65
3.93
3.25
2.59
1.86
0.96
-0.11
-1.33
-2.57
-3.72
-4.66
-5.36
-5.89
-6.38
-7.00
-7.86
-8.96
-10.29
-11.67
-12.91
-13.76
-14.00
-13.53
-12.38
-10.76
-8.94
-7.17
-5.59
-4.24
-3.09
-2.09
-1.25
-0.60
-0.18
0.00
-0.00
-0.13
-0.32
-0.48
-0.54
-0.42
-0.10
0.43
1.15
1.96
2.75
3.43
3.90
4.13
4.12
3.91
3.60
3.29
3.05
2.88
2.75
2.57
2.30
1.87
1.31
0.64
-0.08
-0.78
-1.48
-2.21
-3.08
-4.17
-5.45
-6.72
-7.63
-7.82
-7.02
-5.22
-2.67
0.28
3.29
6.19
8.95
11.64
14.25
16.63
18.60
19.94
20.56
20.50
19.91
19.02
18.07
17.25
16.69
16.42
16.29
16.09
15.52
14.40
12.68
10.43
7.86
5.18
2.54
0.05
-2.20
-4.14
-5.76
-7.07
-8.15
-9.13
-10.13
-11.16
-12.16
-13.02
-13.63
-13.98
-14.16
-14.33
-14.65
-15.19
-15.88
-16.55
-16.98
-16.98
-16.45
-15.38
-13.82
-11.87
-9.64
-7.27
-4.93
-2.77
-0.85
0.83
2.37
3.84
5.23
6.41
7.23
7.56
7.43
7.01
6.59
6.42
6.63
7.18
7.94
8.67
9.18
9.33
9.07
8.46
7.61
6.70
5.87
5.22
4.73
4.27
3.71
2.95
1.96
0.76
-0.60
-2.08
-3.64
-5.22
-6.72
-8.07
-9.24
-10.29
-11.34
-12.49
-13.75
-14.99
-16.01
-16.58
-16.54
-15.84
-14.57
-12.88
-11.04
-9.30
-7.86
-6.78
-5.99
-5.33
-4.63
-3.84
-3.05
-2.40
-2.00
-1.86
-1.80
-1.63
-1.20
-0.47
0.43
1.29
1.93
2.27
2.28
2.07
1.74
1.38
1.04
0.75
0.48
0.24
0.01
-0.22
-0.44
-0.68
-0.99
-1.39
-1.93
-2.58
-3.31
-4.10
-4.96
-5.91
-7.06
-8.44
-9.97
-11.41
-12.43
-12.67
-11.94
-10.30
-8.08
-5.70
-3.57
-1.86
-0.57
0.49
1.46
2.39
3.21
3.84
4.23
4.48
4.72
5.06
5.54
6.08
6.55
6.85
6.98
6.99
7.01
7.09
7.24
7.39
7.46
7.36
7.04
6.47
5.63
4.54
3.23
1.75
0.23
-1.20
-2.41
-3.36
-4.13
-4.91
-5.83
-6.97
-8.23
-9.47
-10.56
-11.50
-12.35
-13.19
-13.97
-14.51
-14.57
-13.97
-12.68
-10.85
-8.69
-6.41
-4.15
-1.99
-0.01
1.73
3.21
4.45
5.47
6.33
7.02
7.56
7.95
8.26
8.60
9.09
9.78
10.59
11.42
12.13
12.64
12.90
12.90
12.68
12.29
11.84
11.41
11.05
10.74
10.43
10.02
9.47
8.78
8.04
7.34
6.73
6.25
5.86
5.49
5.07
4.53
3.80
2.84
1.68
0.39
-0.76
-1.52
-1.54
-0.60
1.37
4.25
7.68
11.20
14.36
16.81
18.42
19.26
19.55
19.55
19.44
19.26
18.87
18.02
16.52
14.32
11.60
8.75
6.18
4.18
2.78
1.75
0.78
-0.43
-1.98
-3.88
-5.98
-8.20
-10.44
-12.68
-14.87
-17.00
-19.02
-20.95
-22.81
-24.63
-26.41
-28.09
-29.60
-30.86
-31.81
-32.45
-32.88
-33.27
-33.85
-34.74
-35.91
-37.08
-37.78
-37.53
-35.99
-33.10
-29.11
-24.39
-19.42
-14.56
-10.06
-6.08
-2.75
-0.11
1.85
3.24
4.22
4.99
5.73
6.56
7.50
8.52
9.50
10.34
10.96
11.35
11.59
11.82
12.17
12.67
13.25
13.73
13.91
13.66
13.00
12.04
10.94
9.83
8.80
7.80
6.73
5.53
4.13
2.59
0.97
-0.67
-2.30
-3.94
-5.57
-7.11
-8.38
-9.13
-9.16
-8.39
-6.89
-4.89
-2.66
-0.46
1.52
3.19
4.46
5.28
5.62
5.48
4.94
4.18
3.42
2.90
2.76
3.02
3.58
4.27
4.90
5.37
5.60
5.62
5.45
5.13
4.70
4.17
3.61
3.02
2.40
1.75
1.04
0.27
-0.55
-1.43
-2.39
-3.52
-4.90
-6.52
-8.28
-9.99
-11.47
-12.55
-13.14
-13.17
-12.59
-11.38
-9.56
-7.25
-4.62
-1.93
0.58
2.78
4.59
6.09
7.37
8.52
9.57
10.49
11.24
11.77
12.06
12.17
12.19
12.23
12.38
12.62
12.92
13.17
13.31
13.29
13.08
12.69
12.11
11.33
10.36
9.20
7.90
6.52
5.18
3.91
2.71
1.50
0.12
-1.54
-3.54
-5.78
-8.05
-10.05
-11.57
-12.50
-12.85
-12.73
-12.22
-11.37
-10.15
-8.52
-6.49
-4.18
-1.79
0.43
2.25
3.59
4.44
4.91
5.11
5.16
5.06
4.83
4.47
4.02
3.55
3.16
2.87
2.75
2.77
2.96
3.27
3.66
4.07
4.39
4.51
4.36
3.94
3.26
2.46
1.64
0.91
0.32
-0.17
-0.70
-1.40
-2.35
-3.53
-4.81
-5.95
-6.74
-7.01
-6.68
-5.79
-4.50
-3.01
-1.54
-0.25
0.83
1.73
2.54
3.34
4.20
5.12
6.11
7.15
8.22
9.24
10.09
10.67
10.93
10.95
10.90
10.95
11.19
11.60
12.08
12.49
12.72
12.70
12.42
11.88
11.13
10.19
9.12
7.99
6.82
5.64
4.43
3.13
1.73
0.19
-1.46
-3.18
-4.89
-6.50
-7.90
-8.99
-9.64
-9.72
-9.13
-7.83
-5.90
-3.56
-1.13
1.09
2.89
4.19
5.06
5.62
5.94
6.04
5.90
5.54
5.04
4.54
4.19
4.05
4.11
4.30
4.53
4.73
4.88
4.96
4.96
4.82
4.48
3.84
2.83
1.45
-0.23
-2.03
-3.72
-5.12
-6.13
-6.81
-7.30
-7.77
-8.37
-9.16
-10.13
-11.20
-12.27
-13.21
-13.80
-13.85
-13.19
-11.83
-9.88
-7.60
-5.27
-3.13
-1.33
0.08
1.10
1.78
2.13
2.20
2.03
1.72
1.37
1.06
0.86
0.80
0.88
1.03
1.20
1.34
1.44
1.52
1.62
1.77
1.97
2.12
2.12
1.87
1.32
0.47
-0.60
-1.79
-3.00
-4.17
-5.25
-6.25
-7.23
-8.24
-9.36
-10.60
-11.92
-13.19
-14.20
-14.72
-14.55
-13.58
-11.84
-9.54
-6.94
-4.35
-2.03
-0.10
1.42
2.59
3.47
4.11
4.52
4.74
4.78
4.71
4.61
4.57
4.61
4.73
4.86
4.89
4.77
4.49
4.13
3.82
3.71
3.87
4.27
4.76
5.14
5.20
4.88
4.21
3.36
2.46
1.62
0.83
0.03
-0.84
-1.83
-2.94
-4.15
-5.44
-6.77
-8.04
-9.06
-9.62
-9.47
-8.46
-6.62
-4.11
-1.22
1.69
4.30
6.40
7.95
9.01
9.77
10.39
10.96
11.47
11.82
11.92
11.75
11.40
11.06
10.89
10.98
11.32
11.74
12.12
12.34
12.36
12.17
11.81
11.27
10.54
9.63
8.60
7.54
6.51
5.51
4.47
3.30
1.97
0.57
-0.81
-2.04
-3.11
-4.08
-5.11
-6.37
-7.95
-9.82
-11.84
-13.77
-15.32
-16.23
-16.30
-15.44
-13.75
-11.46
-8.86
-6.30
-4.04
-2.23
-0.90
0.01
0.60
0.97
1.20
1.34
1.44
1.54
1.69
1.97
2.40
2.98
3.62
4.15
4.45
4.43
4.15
3.70
3.21
2.74
2.28
1.73
0.96
-0.06
-1.28
-2.58
-3.82
-4.89
-5.74
-6.41
-7.01
-7.66
-8.47
-9.51
-10.75
-12.05
-13.20
-13.96
-14.13
-13.67
-12.60
-11.08
-9.25
-7.21
-5.06
-2.89
-0.82
1.02
2.50
3.59
4.31
4.81
5.24
5.69
6.23
6.83
7.44
8.02
8.55
8.97
9.23
9.29
9.10
8.69
8.12
7.47
6.84
6.27
5.72
5.10
4.36
3.48
2.51
1.55
0.67
-0.05
-0.65
-1.19
-1.76
-2.42
-3.23
-4.20
-5.36
-6.67
-8.10
-9.55
-10.87
-11.83
-12.25
-12.00
-11.05
-9.50
-7.51
-5.30
-3.02
-0.78
1.31
3.20
4.81
6.12
7.08
7.70
8.02
8.09
8.02
7.93
7.96
8.20
8.69
9.30
9.89
10.31
10.50
10.56
10.57
10.60
10.61
10.50
10.18
9.64
8.97
8.26
7.56
6.85
6.10
5.22
4.24
3.20
2.20
1.29
0.47
-0.32
-1.19
-2.32
-3.80
-5.66
-7.74
-9.77
-11.38
-12.26
-12.22
-11.28
-9.68
-7.77
-5.90
-4.38
-3.35
-2.77
-2.50
-2.32
-2.07
-1.68
-1.22
-0.75
-0.38
-0.16
-0.06
-0.06
-0.09
-0.09
-0.04
0.07
0.24
0.40
0.50
0.52
0.44
0.35
0.30
0.30
0.23
-0.04
-0.62
-1.51
-2.60
-3.72
-4.75
-5.63
-6.43
-7.20
-8.01
-8.88
-9.81
-10.86
-12.07
-13.40
-14.69
-15.65
-15.97
-15.45
-14.12
-12.19
-9.94
-7.65
-5.48
-3.50
-1.76
-0.30
0.82
1.57
2.04
2.35
2.63
2.96
3.36
3.74
4.02
4.14
4.11
4.04
4.02
4.17
4.53
5.08
5.78
6.52
7.22
7.79
8.14
8.20
7.94
7.38
6.60
5.71
4.80
3.95
3.16
2.42
1.71
1.03
0.37
-0.31
-1.07
-1.95
-2.95
-4.05
-5.12
-6.06
-6.74
-7.01
-6.73
-5.83
-4.29
-2.25
0.06
2.37
4.44
6.15
7.48
8.50
9.26
9.80
10.15
10.37
10.54
10.76
11.05
11.39
11.70
11.94
12.11
12.26
12.45
12.69
12.94
13.13
13.15
12.95
12.50
11.82
10.92
9.83
8.56
7.10
5.48
3.76
2.07
0.59
-0.57
-1.36
-1.89
-2.33
-2.90
-3.76
-5.01
-6.66
-8.62
-10.74
-12.79
-14.51
-15.66
-16.07
-15.70
-14.59
-12.92
-10.92
-8.86
-6.97
-5.47
-4.45
-3.89
-3.66
-3.60
-3.62
-3.68
-3.77
-3.91
-4.00
-3.91
-3.58
-2.98
-2.22
-1.44
-0.78
-0.25
0.16
0.54
0.90
1.21
1.38
1.34
1.05
0.50
-0.29
-1.28
-2.41
-3.61
-4.76
-5.73
-6.42
-6.82
-6.97
-6.98
-7.04
-7.28
-7.80
-8.58
-9.50
-10.32
-10.79
-10.67
-9.90
-8.52
-6.73
-4.76
-2.86
-1.18
0.21
1.28
2.11
2.76
3.36
3.94
4.54
5.10
5.58
5.93
6.20
6.43
6.63
6.78
6.79
6.65
6.38
6.10
5.91
5.86
5.89
5.88
5.73
5.42
5.00
4.52
4.04
3.49
2.82
2.01
1.10
0.21
-0.55
-1.16
-1.67
-2.22
-2.99
-4.12
-5.64
-7.47
-9.36
-11.02
-12.13
-12.48
-12.00
-10.80
-9.05
-6.99
-4.79
-2.59
-0.47
1.48
3.23
4.76
6.12
7.31
8.35
9.19
9.76
10.03
10.07
10.00
10.00
10.15
10.43
10.73
10.95
11.00
10.94
10.82
10.70
10.58
10.37
10.01
9.49
8.84
8.15
7.48
6.83
6.12
5.27
4.21
3.00
1.75
0.63
-0.26
-0.90
-1.41
-1.98
-2.84
-4.16
-5.94
-8.06
-10.26
-12.21
-13.61
-14.24
-14.00
-12.95
-11.26
-9.23
-7.15
-5.29
-3.78
-2.65
-1.83
-1.20
-0.65
-0.13
0.36
0.79
1.14
1.46
1.81
2.26
2.81
3.40
3.90
4.18
4.14
3.79
3.17
2.36
1.45
0.54
-0.29
-0.97
-1.43
-1.72
-1.89
-2.04
-2.26
-2.55
-2.87
-3.14
-3.36
-3.57
-3.86
-4.36
-5.18
-6.40
-7.98
-9.78
-11.57
-13.05
-13.94
-14.06
-13.33
-11.86
-9.86
-7.62
-5.46
-3.63
-2.25
-1.31
-0.69
-0.20
0.32
0.93
1.57
2.14
2.54
2.78
2.97
3.20
3.52
3.91
4.28
4.52
4.59
4.47
4.18
3.75
3.23
2.65
2.10
1.64
1.34
1.22
1.18
1.07
0.78
0.22
-0.57
-1.47
-2.36
-3.19
-3.96
-4.79
-5.75
-6.87
-8.05
-9.14
-9.97
-10.42
-10.43
-9.97
-9.04
-7.62
-5.76
-3.59
-1.29
0.92
2.90
4.57
5.94
7.01
7.82
8.36
8.68
8.86
8.99
9.13
9.28
9.40
9.43
9.38
9.32
9.36
9.53
9.82
10.13
10.32
10.28
9.97
9.42
8.72
7.97
7.25
6.58
5.93
5.24
4.41
3.42
2.28
1.04
-0.21
-1.42
-2.55
-3.67
-4.85
-6.17
-7.64
-9.25
-10.89
-12.41
-13.65
-14.46
-14.72
-14.39
-13.48
-12.10
-10.39
-8.50
-6.59
-4.76
-3.07
-1.59
-0.35
0.61
1.29
1.80
2.30
3.06
4.27
5.97
8.01
10.01
11.59
12.45
12.53
12.01
11.19
10.42
9.90
9.67
9.65
9.74
9.85
9.89
9.80
9.52
8.97
8.10
6.92
5.48
3.89
2.25
0.68
-0.69
-1.84
-2.76
-3.61
-4.61
-5.93
-7.68
-9.71
-11.73
-13.37
-14.35
-14.57
-14.11
-13.17
-11.92
-10.46
-8.81
-7.00
-5.10
-3.30
-1.75
-0.59
0.19
0.70
1.08
1.39
1.66
1.84
1.90
1.88
1.88
1.98
2.25
2.64
3.09
3.54
3.96
4.33
4.63
4.79
4.71
4.37
3.79
3.05
2.24
1.43
0.62
-0.21
-1.11
-2.05
-2.97
-3.77
-4.39
-4.82
-5.14
-5.47
-5.95
-6.69
-7.73
-9.00
-10.34
-11.52
-12.28
-12.42
-11.88
-10.79
-9.38
-7.90
-6.55
-5.43
-4.53
-3.81
-3.23
-2.72
-2.26
-1.79
-1.27
-0.63
0.10
0.90
1.70
2.47
3.23
4.00
4.80
5.58
6.28
6.79
7.01
6.90
6.44
5.68
4.71
3.63
2.52
1.48
0.54
-0.31
-1.12
-1.94
-2.82
-3.74
-4.62
-5.30
-5.66
-5.64
-5.28
-4.71
-4.10
-3.55
-3.16
-2.99
-3.08
-3.48
-4.10
-4.78
-5.23
-5.18
-4.42
-2.90
-0.73
1.87
4.66
7.40
9.87
11.93
13.48
14.52
15.12
15.41
15.48
15.40
15.20
14.90
14.51
14.04
13.50
12.85
12.06
11.17
10.28
9.54
9.09
8.93
8.96
8.96
8.76
8.24
7.47
6.58
5.73
5.01
4.45
3.95
3.39
2.71
1.89
0.96
0.03
-0.87
-1.72
-2.56
-3.44
-4.42
-5.48
-6.63
-7.82
-9.05
-10.32
-11.60
-12.74
-13.51
-13.64
-12.95
-11.42
-9.27
-6.89
-4.70
-3.01
-1.90
-1.28
-0.96
-0.78
-0.64
-0.54
-0.50
-0.50
-0.46
-0.30
0.03
0.46
0.91
1.27
1.51
1.71
1.98
2.39
2.87
3.28
3.42
3.20
2.67
1.98
1.28
0.68
0.18
-0.28
-0.77
-1.30
-1.84
-2.36
-2.87
-3.38
-3.94
-4.59
-5.36
-6.26
-7.33
-8.55
-9.85
-11.07
-11.97
-12.35
-12.08
-11.16
-9.69
-7.88
-5.93
-4.03
-2.29
-0.79
0.48
1.57
2.52
3.36
4.06
4.59
4.93
5.11
5.23
5.37
5.56
5.73
5.78
5.59
5.23
4.81
4.51
4.43
4.52
4.60
4.48
4.07
3.36
2.52
1.66
0.84
0.04
-0.82
-1.77
-2.80
-3.82
-4.79
-5.65
-6.43
-7.13
-7.79
-8.45
-9.15
-9.96
-10.81
-11.59
-12.05
-11.89
-10.93
-9.15
-6.79
-4.18
-1.68
0.53
2.36
3.85
5.06
6.01
6.74
7.25
7.61
7.92
8.25
8.69
9.25
9.91
10.64
11.41
12.14
12.79
13.26
13.52
13.58
13.50
13.35
13.13
12.84
12.37
11.59
10.41
8.85
6.99
5.04
3.24
1.75
0.67
-0.06
-0.61
-1.14
-1.75
-2.47
-3.27
-4.06
-4.84
-5.63
-6.49
-7.48
-8.60
-9.77
-10.83
-11.55
-11.69
-11.13
-9.86
-8.11
-6.17
-4.38
-2.99
-2.04
-1.44
-1.00
-0.55
-0.04
0.43
0.72
0.71
0.42
0.01
-0.29
-0.30
0.04
0.67
1.38
2.02
2.53
2.93
3.24
3.44
3.39
2.99
2.19
1.13
0.05
-0.83
-1.41
-1.75
-2.07
-2.54
-3.25
-4.10
-4.91
-5.51
-5.85
-6.07
-6.42
-7.15
-8.38
-10.05
-11.93
-13.67
-14.90
-15.38
-15.04
-13.96
-12.31
-10.26
-7.95
-5.49
-2.99
-0.65
1.33
2.78
3.65
4.05
4.15
4.16
4.21
4.35
4.59
4.91
5.34
5.89
6.52
7.16
7.70
8.04
8.15
8.09
7.89
7.60
7.24
6.84
6.43
6.07
5.81
5.65
5.52
5.28
4.75
3.83
2.51
0.99
-0.48
-1.68
-2.50
-3.01
-3.42
-3.90
-4.57
-5.42
-6.34
-7.23
-7.99
-8.56
-8.82
-8.66
-7.98
-6.80
-5.30
-3.73
-2.35
-1.28
-0.45
0.24
0.91
1.56
2.09
2.40
2.49
2.43
2.41
2.57
2.94
3.41
3.82
4.03
3.98
3.76
3.54
3.49
3.67
3.99
4.21
4.16
3.75
3.10
2.42
1.86
1.44
1.04
0.49
-0.31
-1.27
-2.21
-2.96
-3.47
-3.85
-4.30
-4.99
-6.00
-7.28
-8.72
-10.21
-11.62
-12.85
-13.74
-14.09
-13.74
-12.56
-10.61
-8.12
-5.47
-3.05
-1.14
0.14
0.87
1.22
1.39
1.54
1.75
2.01
2.29
2.57
2.84
3.14
3.48
3.85
4.22
4.53
4.74
4.89
5.08
5.38
5.77
6.15
6.35
6.28
5.96
5.51
5.05
4.64
4.22
3.62
2.77
1.68
0.53
-0.52
-1.35
-1.94
-2.39
-2.85
-3.41
-4.14
-5.04
-6.12
-7.28
-8.39
-9.25
-9.59
-9.25
-8.19
-6.52
-4.50
-2.44
-0.60
0.88
1.98
2.79
3.48
4.18
4.95
5.77
6.51
7.09
7.48
7.72
7.96
8.27
8.64
8.98
9.17
9.20
9.19
9.33
9.69
10.22
10.68
10.78
10.34
9.39
8.13
6.85
5.75
4.86
4.09
3.26
2.22
0.96
-0.53
-2.13
-3.70
-5.12
-6.28
-7.21
-8.05
-8.99
-10.22
-11.78
-13.54
-15.23
-16.52
-17.16
-17.02
-16.12
-14.59
-12.59
-10.36
-8.12
-6.08
-4.38
-3.07
-2.08
-1.32
-0.72
-0.23
0.11
0.29
0.34
0.34
0.41
0.61
0.96
1.38
1.75
2.02
2.24
2.48
2.79
3.13
3.30
3.09
2.38
1.20
-0.23
-1.62
-2.77
-3.61
-4.20
-4.68
-5.14
-5.64
-6.15
-6.63
-7.04
-7.39
-7.67
-7.94
-8.28
-8.81
-9.58
-10.59
-11.64
-12.43
-12.68
-12.14
-10.80
-8.85
-6.57
-4.32
-2.32
-0.68
0.62
1.63
2.43
3.07
3.57
4.01
4.44
4.95
5.54
6.19
6.82
7.36
7.77
8.07
8.27
8.40
8.50
8.60
8.73
8.89
9.06
9.19
9.17
8.98
8.62
8.14
7.63
7.13
6.62
6.08
5.44
4.69
3.85
2.94
2.01
1.11
0.28
-0.51
-1.33
-2.25
-3.36
-4.60
-5.85
-6.91
-7.59
-7.75
-7.37
-6.47
-5.13
-3.43
-1.45
0.67
2.75
4.62
6.13
7.23
8.02
8.61
9.09
9.48
9.72
9.79
9.68
9.43
9.12
8.79
8.45
8.08
7.68
7.30
7.03
6.90
6.91
6.96
6.90
6.63
6.10
5.38
4.59
3.84
3.19
2.61
2.07
1.45
0.74
-0.04
-0.78
-1.38
-1.80
-2.10
-2.41
-2.92
-3.77
-5.00
-6.51
-8.12
-9.62
-10.82
-11.54
-11.73
-11.36
-10.50
-9.29
-7.86
-6.38
-4.95
-3.66
-2.57
-1.68
-0.95
-0.32
0.27
0.84
1.38
1.82
2.10
2.19
2.13
2.04
2.08
2.33
2.80
3.39
3.93
4.26
4.33
4.19
3.91
3.58
3.20
2.71
2.05
1.20
0.21
-0.81
-1.79
-2.66
-3.41
-4.08
-4.70
-5.32
-6.01
-6.82
-7.80
-8.92
-10.11
-11.21
-12.03
-12.41
-12.26
-11.56
-10.36
-8.72
-6.80
-4.75
-2.77
-1.06
0.29
1.25
1.93
2.44
2.90
3.35
3.74
4.02
4.17
4.25
4.39
4.69
5.19
5.81
6.44
6.97
7.36
7.60
7.71
7.67
7.42
6.88
6.03
4.97
3.88
2.99
2.41
2.10
1.88
1.50
0.75
-0.38
-1.71
-2.96
-3.85
-4.33
-4.52
-4.68
-5.10
-5.90
-7.02
-8.21
-9.13
-9.47
-9.10
-8.08
-6.65
-5.08
-3.58
-2.23
-1.00
0.18
1.37
2.54
3.63
4.62
5.51
6.33
7.08
7.67
7.99
7.98
7.68
7.26
6.93
6.84
7.02
7.34
7.62
7.69
7.44
6.90
6.16
5.34
4.57
3.91
3.35
2.81
2.16
1.31
0.20
-1.12
-2.54
-3.94
-5.17
-6.17
-6.98
-7.75
-8.67
-9.92
-11.60
-13.66
-15.87
-17.89
-19.34
-19.92
-19.50
-18.15
-16.07
-13.55
-10.86
-8.22
-5.77
-3.57
-1.61
0.09
1.57
2.80
3.79
4.49
4.93
5.16
5.28
5.36
5.46
5.54
5.53
5.39
5.14
4.87
4.70
4.68
4.79
4.88
4.77
4.34
3.56
2.50
1.32
0.18
-0.87
-1.80
-2.67
-3.47
-4.17
-4.74
-5.18
-5.58
-6.07
-6.82
-7.84
-9.03
-10.16
-10.98
-11.27
-10.94
-10.02
-8.60
-6.82
-4.81
-2.73
-0.77
0.90
2.16
3.05
3.66
4.16
4.66
5.26
5.92
6.58
7.15
7.61
8.01
8.42
8.91
9.50
10.14
10.76
11.26
11.62
11.85
11.94
11.89
11.63
11.09
10.25
9.20
8.11
7.18
6.48
5.98
5.54
4.99
4.28
3.44
2.61
1.89
1.31
0.76
0.09
-0.86
-2.20
-3.94
-5.97
-8.06
-9.88
-11.10
-11.46
-10.87
-9.46
-7.55
-5.47
-3.50
-1.77
-0.28
0.97
2.04
2.89
3.50
3.85
3.95
3.86
3.65
3.37
3.03
2.69
2.37
2.14
2.07
2.18
2.38
2.55
2.55
2.28
1.80
1.21
0.65
0.25
-0.04
-0.30
-0.69
-1.27
-2.06
-2.98
-3.94
-4.88
-5.79
-6.71
-7.63
-8.56
-9.40
-10.06
-10.53
-10.90
-11.38
-12.16
-13.31
-14.64
-15.78
-16.24
-15.72
-14.20
-11.99
-9.56
-7.36
-5.61
-4.30
-3.33
-2.57
-1.99
-1.62
-1.42
-1.30
-1.12
-0.78
-0.32
0.11
0.33
0.32
0.22
0.29
0.69
1.47
2.45
3.37
4.01
4.27
4.18
3.89
3.51
3.10
2.71
2.31
1.90
1.48
1.05
0.62
0.21
-0.14
-0.40
-0.57
-0.65
-0.69
-0.72
-0.81
-1.02
-1.43
-2.11
-3.06
-4.20
-5.33
-6.18
-6.48
-6.00
-4.70
-2.69
-0.29
2.15
4.29
5.90
6.98
7.63
8.05
8.40
8.76
9.12
9.43
9.67
9.87
10.09
10.39
10.78
11.19
11.53
11.71
11.71
11.58
11.43
11.40
11.54
11.84
12.17
12.34
12.22
11.70
10.84
9.81
8.80
8.01
7.50
7.16
6.81
6.24
5.33
4.13
2.83
1.62
0.61
-0.22
-1.04
-1.99
-3.16
-4.50
-5.91
-7.23
-8.40
-9.32
-9.93
-10.12
-9.77
-8.83
-7.40
-5.66
-3.90
-2.32
-1.02
0.01
0.86
1.62
2.31
2.88
3.31
3.59
3.77
3.98
4.32
4.82
5.50
6.23
6.90
7.39
7.66
7.73
7.65
7.52
7.34
7.09
6.68
6.07
5.31
4.50
3.80
3.31
3.01
2.77
2.43
1.84
1.01
0.08
-0.79
-1.45
-1.89
-2.21
-2.60
-3.24
-4.26
-5.66
-7.34
-9.11
-10.74
-11.95
-12.49
-12.19
-11.00
-9.08
-6.76
-4.41
-2.38
-0.84
0.21
0.93
1.44
1.82
2.05
2.05
1.80
1.33
0.79
0.36
0.19
0.36
0.85
1.51
2.20
2.72
3.02
3.11
3.11
3.15
3.31
3.59
3.85
3.97
3.84
3.49
3.02
2.51
2.04
1.57
1.00
0.29
-0.59
-1.57
-2.52
-3.38
-4.15
-4.91
-5.77
-6.79
-7.97
-9.25
-10.51
-11.61
-12.44
-12.88
-12.81
-12.16
-10.93
-9.27
-7.42
-5.66
-4.24
-3.22
-2.51
-1.89
-1.17
-0.26
0.75
1.68
2.39
2.88
3.27
3.72
4.33
5.05
5.75
6.27
6.56
6.66
6.72
6.86
7.10
7.37
7.52
7.49
7.27
6.94
6.58
6.25
5.94
5.59
5.14
4.53
3.74
2.79
1.71
0.52
-0.78
-2.16
-3.57
-4.89
-5.98
-6.80
-7.37
-7.89
-8.58
-9.63
-11.01
-12.50
-13.71
-14.27
-13.96
-12.79
-11.00
-8.89
-6.78
-4.88
-3.24
-1.83
-0.56
0.65
1.81
2.87
3.72
4.30
4.57
4.65
4.68
4.80
5.07
5.48
6.00
6.55
7.15
7.79
8.48
9.21
9.91
10.52
10.95
11.14
11.07
10.75
10.21
9.51
8.74
7.93
7.16
6.47
5.89
5.41
4.98
4.51
3.94
3.25
2.48
1.70
0.93
0.08
-0.99
-2.43
-4.25
-6.29
-8.25
-9.81
-10.72
-10.87
-10.25
-8.95
-7.10
-4.89
-2.57
-0.42
1.35
2.62
3.42
3.89
4.26
4.64
5.06
5.45
5.71
5.81
5.79
5.76
5.82
6.05
6.41
6.83
7.24
7.60
7.90
8.11
8.19
8.13
7.90
7.53
7.05
6.48
5.86
5.18
4.44
3.63
2.78
1.88
0.89
-0.20
-1.41
-2.67
-3.88
-4.97
-5.97
-6.98
-8.15
-9.61
-11.32
-13.13
-14.76
-15.92
-16.42
-16.17
-15.26
-13.85
-12.17
-10.42
-8.74
-7.20
-5.84
-4.67
-3.68
-2.87
-2.25
-1.81
-1.52
-1.31
-1.13
-0.92
-0.66
-0.37
-0.05
0.30
0.70
1.17
1.66
2.12
2.48
2.66
2.66
2.47
2.12
1.63
1.02
0.30
-0.46
-1.23
-1.99
-2.73
-3.49
-4.27
-5.06
-5.85
-6.65
-7.47
-8.36
-9.37
-10.47
-11.58
-12.57
-13.28
-13.56
-13.31
-12.51
-11.19
-9.53
-7.74
-6.03
-4.58
-3.45
-2.57
-1.83
-1.12
-0.41
0.25
0.79
1.15
1.34
1.48
1.70
2.09
2.65
3.29
3.84
4.20
4.32
4.23
4.07
3.91
3.80
3.69
3.52
3.24
2.87
2.45
1.99
1.50
0.92
0.16
-0.82
-1.98
-3.27
-4.64
-6.07
-7.53
-8.98
-10.41
-11.80
-13.18
-14.61
-16.13
-17.63
-18.87
-19.54
-19.34
-18.17
-16.18
-13.66
-10.98
-8.39
-6.02
-3.90
-2.02
-0.36
1.03
2.17
3.08
3.84
4.52
5.18
5.85
6.57
7.34
8.21
9.18
10.21
11.22
12.10
12.77
13.19
13.36
13.37
13.31
13.22
13.11
12.94
12.64
12.19
11.57
10.85
10.08
9.36
8.73
8.21
7.83
7.58
7.40
7.15
6.65
5.70
4.22
2.29
0.17
-1.85
-3.44
-4.40
-4.66
-4.23
-3.21
-1.77
-0.07
1.70
3.37
4.83
6.00
6.92
7.64
8.21
8.67
9.00
9.17
9.20
9.15
9.12
9.22
9.49
9.89
10.28
10.50
10.43
10.04
9.42
8.70
8.00
7.38
6.81
6.23
5.59
4.81
3.89
2.85
1.75
0.65
-0.39
-1.35
-2.24
-3.11
-4.04
-5.11
-6.40
-7.95
-9.80
-11.91
-14.16
-16.33
-18.14
-19.27
-19.51
-18.78
-17.23
-15.12
-12.77
-10.45
-8.31
-6.41
-4.77
-3.40
-2.34
-1.59
-1.13
-0.82
-0.55
-0.24
0.11
0.44
0.68
0.83
0.91
0.99
1.13
1.35
1.63
1.93
2.19
2.37
2.39
2.22
1.81
1.17
0.35
-0.59
-1.52
-2.36
-3.01
-3.44
-3.74
-4.05
-4.56
-5.44
-6.71
-8.27
-9.88
-11.24
-12.06
-12.14
-11.43
-10.03
-8.14
-6.02
-3.88
-1.87
-0.07
1.52
2.90
4.06
4.99
5.68
6.15
6.49
6.75
7.03
7.37
7.80
8.30
8.85
9.38
9.83
10.18
10.40
10.49
10.45
10.26
9.91
9.35
8.60
7.73
6.81
5.89
4.97
4.00
2.91
1.71
0.47
-0.73
-1.82
-2.88
-4.01
-5.36
-6.94
-8.67
-10.36
-11.81
-12.84
-13.33
-13.19
-12.38
-10.90
-8.89
-6.60
-4.36
-2.45
-1.05
-0.14
0.41
0.78
1.12
1.45
1.76
2.03
2.30
2.61
3.06
3.69
4.45
5.24
5.92
6.43
6.74
6.89
6.94
6.88
6.69
6.33
5.79
5.17
4.58
4.10
3.71
3.32
2.78
2.02
1.02
-0.12
-1.33
-2.62
-4.02
-5.59
-7.32
-9.09
-10.68
-11.88
-12.47
-12.35
-11.49
-9.95
-7.86
-5.43
-2.92
-0.58
1.43
3.02
4.27
5.28
6.14
6.89
7.51
7.98
8.39
8.84
9.43
10.20
11.07
11.91
12.53
12.83
12.83
12.62
12.38
12.22
12.17
12.14
11.99
11.59
10.84
9.80
8.58
7.32
6.10
4.96
3.85
2.70
1.45
0.05
-1.54
-3.30
-5.22
-7.31
-9.54
-11.88
-14.24
-16.43
-18.17
-19.16
-19.18
-18.18
-16.31
-13.88
-11.30
-8.91
-6.93
-5.45
-4.39
-3.60
-2.92
-2.18
-1.36
-0.55
0.10
0.47
0.60
0.63
0.79
1.23
1.95
2.82
3.63
4.26
4.67
4.97
5.31
5.75
6.29
6.80
7.15
7.23
7.00
6.48
5.72
4.76
3.64
2.43
1.19
0.03
-0.99
-1.87
-2.72
-3.71
-5.00
-6.63
-8.51
-10.41
-11.98
-12.93
-13.02
-12.22
-10.65
-8.52
-6.07
-3.51
-1.02
1.27
3.17
4.60
5.52
6.04
6.38
6.76
7.30
8.01
8.82
9.59
10.27
10.84
11.39
11.97
12.65
13.41
14.18
14.85
15.27
15.31
14.94
14.22
13.34
12.47
11.69
10.97
10.21
9.32
8.30
7.21
6.11
5.02
3.88
2.64
1.27
-0.13
-1.48
-2.76
-4.09
-5.68
-7.69
-10.12
-12.73
-15.10
-16.75
-17.35
-16.84
-15.41
-13.42
-11.27
-9.20
-7.34
-5.70
-4.28
-3.15
-2.37
-1.99
-1.96
-2.13
-2.30
-2.31
-2.09
-1.67
-1.11
-0.42
0.36
1.24
2.14
2.99
3.67
4.09
4.22
4.05
3.65
3.08
2.42
1.74
1.04
0.31
-0.55
-1.58
-2.76
-4.00
-5.14
-6.06
-6.73
-7.24
-7.70
-8.20
-8.82
-9.57
-10.53
-11.76
-13.31
-15.11
-16.95
-18.48
-19.34
-19.26
-18.19
-16.27
-13.84
-11.25
-8.80
-6.73
-5.13
-3.97
-3.13
-2.45
-1.73
-0.87
0.14
1.22
2.28
3.30
4.32
5.44
6.75
8.18
9.59
10.78
11.63
12.15
12.43
12.62
12.78
12.87
12.80
12.52
12.04
11.47
10.94
10.57
10.34
10.15
9.86
9.33
8.47
7.28
5.81
4.14
2.42
0.76
-0.75
-2.15
-3.55
-5.12
-6.96
-9.04
-11.08
-12.69
-13.54
-13.43
-12.42
-10.72
-8.60
-6.29
-3.90
-1.52
0.77
2.88
4.73
6.31
7.66
8.85
9.96
11.03
12.08
13.06
13.88
14.47
14.74
14.70
14.46
14.18
14.09
14.29
14.78
15.38
15.89
16.14
16.07
15.67
14.98
14.00
12.73
11.23
9.64
8.12
6.82
5.78
4.95
4.19
3.36
2.36
1.19
-0.12
-1.50
-2.91
-4.34
-5.79
-7.29
-8.90
-10.59
-12.32
-13.96
-15.35
-16.30
-16.68
-16.43
-15.54
-14.06
-12.13
-9.92
-7.65
-5.53
-3.68
-2.12
-0.79
0.45
1.65
2.82
3.88
4.69
5.21
5.42
5.38
5.20
4.97
4.75
4.61
4.51
4.45
4.37
4.24
4.02
3.74
3.38
2.90
2.24
1.40
0.45
-0.50
-1.34
-2.06
-2.71
-3.40
-4.24
-5.18
-6.13
-6.96
-7.64
-8.22
-8.87
-9.73
-10.85
-12.19
-13.62
-14.96
-16.03
-16.65
-16.66
-15.93
-14.45
-12.32
-9.78
-7.13
-4.63
-2.44
-0.62
0.87
2.05
2.97
3.63
4.05
4.32
4.57
4.93
5.51
6.30
7.21
8.05
8.66
8.88
8.70
8.20
7.53
6.87
6.36
6.06
5.97
5.99
5.99
5.83
5.40
4.70
3.77
2.72
1.65
0.64
-0.28
-1.14
-1.98
-2.86
-3.84
-4.91
-6.07
-7.29
-8.56
-9.88
-11.24
-12.63
-13.98
-15.13
-15.87
-16.05
-15.58
-14.54
-13.06
-11.27
-9.24
-6.99
-4.56
-2.07
0.31
2.39
4.09
5.43
6.53
7.48
8.33
9.05
9.62
10.04
10.40
10.79
11.26
11.76
12.20
12.50
12.63
12.65
12.63
12.64
12.69
12.75
12.79
12.78
12.72
12.58
12.31
11.83
11.07
10.06
8.82
7.43
5.92
4.30
2.61
0.91
-0.71
-2.19
-3.54
-4.87
-6.32
-8.03
-10.03
-12.19
-14.27
-16.03
-17.19
-17.61
-17.22
-16.11
-14.48
-12.61
-10.77
-9.13
-7.71
-6.40
-5.11
-3.79
-2.50
-1.36
-0.46
0.18
0.59
0.84
0.99
1.07
1.10
1.15
1.27
1.51
1.87
2.32
2.75
3.06
3.17
3.03
2.65
2.06
1.29
0.42
-0.50
-1.38
-2.16
-2.78
-3.26
-3.64
-4.02
-4.48
-5.06
-5.82
-6.80
-8.04
-9.60
-11.43
-13.44
-15.40
-17.03
-18.06
-18.27
-17.58
-16.03
-13.78
-11.09
-8.27
-5.64
-3.42
-1.71
-0.48
0.42
1.20
2.00
2.87
3.77
4.62
5.39
6.06
6.67
7.27
7.87
8.41
8.84
9.04
8.95
8.57
7.95
7.25
6.62
6.18
5.95
5.87
5.78
5.56
5.15
4.59
3.95
3.27
2.52
1.65
0.65
-0.45
-1.58
-2.70
-3.81
-5.00
-6.33
-7.85
-9.44
-10.97
-12.24
-13.11
-13.43
-13.13
-12.11
-10.38
-8.03
-5.24
-2.29
0.54
3.05
5.14
6.82
8.16
9.27
10.23
11.03
11.63
12.03
12.22
12.31
12.42
12.68
13.11
13.64
14.14
14.50
14.70
14.81
14.92
15.04
15.05
14.78
14.09
12.98
11.62
10.24
9.00
7.95
6.99
5.94
4.65
3.05
1.14
-0.99
-3.22
-5.50
-7.76
-9.99
-12.17
-14.33
-16.48
-18.61
-20.64
-22.44
-23.83
-24.62
-24.66
-23.88
-22.32
-20.12
-17.48
-14.63
-11.80
-9.16
-6.84
-4.93
-3.49
-2.49
-1.84
-1.43
-1.11
-0.77
-0.33
0.22
0.92
1.75
2.69
3.65
4.49
5.09
5.38
5.39
5.22
5.00
4.78
4.52
4.11
3.46
2.54
1.41
0.20
-0.96
-1.99
-2.82
-3.44
-3.86
-4.23
-4.71
-5.51
-6.71
-8.26
-9.93
-11.40
-12.38
-12.67
-12.26
-11.21
-9.64
-7.70
-5.52
-3.28
-1.19
0.59
1.94
2.84
3.40
3.75
4.06
4.42
4.86
5.35
5.83
6.21
6.46
6.62
6.71
6.76
6.79
6.76
6.69
6.58
6.49
6.46
6.47
6.44
6.22
5.69
4.80
3.60
2.20
0.73
-0.73
-2.11
-3.40
-4.62
-5.76
-6.89
-8.04
-9.27
-10.60
-11.96
-13.24
-14.26
-14.86
-14.83
-14.09
-12.64
-10.64
-8.36
-6.09
-4.10
-2.48
-1.22
-0.17
0.79
1.79
2.82
3.82
4.73
5.45
5.98
6.35
6.65
6.97
7.40
7.98
8.66
9.35
9.93
10.32
10.55
10.68
10.79
10.90
10.94
10.77
10.27
9.40
8.22
6.87
5.53
4.36
3.42
2.66
1.94
1.10
-0.03
-1.51
-3.36
-5.47
-7.72
-9.86
-11.63
-12.74
-12.99
-12.28
-10.70
-8.49
-5.94
-3.33
-0.83
1.47
3.54
5.36
6.89
8.08
8.91
9.37
9.52
9.46
9.32
9.28
9.48
9.99
10.77
11.73
12.72
13.62
14.34
14.85
15.12
15.16
14.96
14.58
14.07
13.46
12.74
11.86
10.77
9.47
8.02
6.48
4.94
3.38
1.79
0.15
-1.52
-3.22
-4.93
-6.68
-8.51
-10.42
-12.31
-13.97
-15.13
-15.54
-15.12
-13.97
-12.32
-10.45
-8.61
-6.96
-5.55
-4.36
-3.35
-2.52
-1.83
-1.27
-0.82
-0.49
-0.26
-0.07
0.13
0.47
1.03
1.87
2.90
3.93
4.78
5.33
5.57
5.58
5.45
5.19
4.78
4.13
3.21
2.11
0.93
-0.21
-1.19
-2.02
-2.78
-3.55
-4.46
-5.58
-6.96
-8.56
-10.31
-12.02
-13.50
-14.51
-14.88
-14.51
-13.38
-11.55
-9.21
-6.61
-4.05
-1.79
0.00
1.29
2.18
2.86
3.48
4.14
4.81
5.43
5.93
6.29
6.52
6.65
6.68
6.64
6.54
6.45
6.44
6.54
6.77
7.10
7.44
7.73
7.85
7.66
7.02
5.87
4.27
2.43
0.65
-0.80
-1.83
-2.55
-3.22
-4.12
-5.44
-7.18
-9.23
-11.40
-13.54
-15.49
-17.16
-18.39
-18.98
-18.74
-17.58
-15.55
-12.90
-9.99
-7.19
-4.76
-2.83
-1.36
-0.22
0.72
1.53
2.19
2.61
2.73
2.54
2.12
1.66
1.35
1.27
1.44
1.80
2.23
2.66
3.10
3.54
3.98
4.39
4.71
4.92
5.04
5.09
5.10
5.05
4.85
4.43
3.73
2.79
1.66
0.42
-0.93
-2.36
-3.85
-5.32
-6.70
-7.97
-9.17
-10.38
-11.63
-12.83
-13.74
-14.11
-13.76
-12.66
-10.94
-8.81
-6.49
-4.11
-1.77
0.47
2.54
4.35
5.86
7.03
7.90
8.57
9.15
9.71
10.29
10.86
11.33
11.63
11.70
11.53
11.16
10.67
10.11
9.51
8.87
8.19
7.47
6.71
5.92
5.06
4.07
2.89
1.46
-0.21
-2.02
-3.83
-5.46
-6.81
-7.87
-8.74
-9.62
-10.70
-12.16
-14.04
-16.25
-18.53
-20.56
-21.99
-22.51
-21.95
-20.31
-17.77
-14.70
-11.53
-8.65
-6.33
-4.65
-3.51
-2.71
-2.03
-1.36
-0.66
0.03
0.65
1.20
1.67
2.10
2.47
2.80
3.07
3.30
3.47
3.62
3.79
4.05
4.45
5.00
5.67
6.40
7.18
8.02
8.92
9.88
10.78
11.48
11.80
11.65
11.10
10.26
9.29
8.22
7.03
5.64
4.02
2.25
0.52
-0.95
-1.97
-2.42
-2.25
-1.50
-0.28
1.27
3.00
4.70
6.20
7.39
8.22
8.77
9.19
9.65
10.31
11.21
12.33
13.52
14.63
15.57
16.30
16.84
17.20
17.43
17.50
17.43
17.22
16.90
16.49
16.02
15.48
14.82
14.01
13.06
11.99
10.86
9.73
8.58
7.38
6.04
4.53
2.88
1.24
-0.26
-1.59
-2.84
-4.18
-5.81
-7.80
-10.04
-12.28
-14.20
-15.51
-16.00
-15.60
-14.37
-12.46
-10.08
-7.46
-4.81
-2.35
-0.23
1.38
2.33
2.55
2.05
0.94
-0.57
-2.23
-3.72
-4.72
-4.92
-4.15
-2.41
0.05
2.82
5.42
7.50
8.98
10.03
10.96
12.03
13.32
14.72
15.97
16.82
17.17
17.07
16.71
16.26
15.77
15.15
14.21
12.74
10.67
8.08
5.23
2.47
0.18
-1.40
-2.20
-2.32
-2.00
-1.47
-0.92
-0.42
0.06
0.54
1.00
1.35
1.49
1.39
1.11
0.72
0.29
-0.13
-0.53
-0.87
-1.11
-1.23
-1.30
-1.48
-1.98
-2.91
-4.22
-5.66
-6.93
-7.89
-8.55
-9.11
-9.80
-10.75
-11.92
-13.17
-14.35
-15.42
-16.39
-17.33
-18.26
-19.13
-19.87
-20.47
-20.98
-21.53
-22.16
-22.78
-23.10
-22.81
-21.62
-19.46
-16.46
-12.95
-9.29
-5.76
-2.51
0.36
2.80
4.72
6.04
6.77
7.00
6.94
6.80
6.73
6.80
7.00
7.25
7.47
7.58
7.51
7.19
6.60
5.84
5.00
4.24
3.62
3.13
2.67
2.14
1.46
0.62
-0.38
-1.49
-2.65
-3.83
-4.93
-5.97
-6.99
-8.17
-9.69
-11.63
-13.90
-16.16
-17.95
-18.78
-18.37
-16.75
-14.23
-11.30
-8.42
-5.88
-3.72
-1.78
0.16
2.25
4.49
6.75
8.82
10.56
11.93
13.01
13.91
14.73
15.53
16.33
17.14
17.97
18.78
19.45
19.82
19.72
19.04
17.81
16.19
14.37
12.52
10.71
8.96
7.28
5.68
4.22
2.89
1.64
0.37
-1.01
-2.52
-4.10
-5.64
-7.05
-8.32
-9.42
-10.33
-10.93
-11.04
-10.55
-9.42
-7.79
-5.86
-3.89
-2.06
-0.46
0.93
2.11
3.08
3.83
4.33
4.62
4.77
4.87
4.97
5.08
5.18
5.21
5.16
5.05
4.97
4.98
5.07
5.15
5.09
4.73
4.01
2.96
1.76
0.57
-0.47
-1.33
-2.12
-2.93
-3.83
-4.81
-5.81
-6.78
-7.76
-8.82
-10.03
-11.36
-12.58
-13.38
-13.46
-12.66
-11.05
-8.93
-6.62
-4.41
-2.44
-0.71
0.81
2.17
3.34
4.26
4.86
5.14
5.14
4.98
4.78
4.64
4.61
4.70
4.86
5.04
5.20
5.30
5.29
5.14
4.83
4.36
3.78
3.10
2.33
1.44
0.38
-0.88
-2.31
-3.77
-5.10
-6.16
-6.94
-7.58
-8.29
-9.23
-10.49
-11.94
-13.30
-14.24
-14.46
-13.82
-12.36
-10.26
-7.81
-5.29
-2.93
-0.87
0.82
2.17
3.23
4.04
4.66
5.14
5.51
5.82
6.11
6.38
6.62
6.84
6.99
7.11
7.17
7.19
7.13
7.00
6.76
6.42
6.01
5.52
4.94
4.20
3.26
2.12
0.83
-0.50
-1.75
-2.87
-3.85
-4.74
-5.61
-6.50
-7.44
-8.43
-9.43
-10.41
-11.21
-11.69
-11.65
-10.98
-9.68
-7.87
-5.75
-3.53
-1.37
0.65
2.50
4.17
5.59
6.66
7.31
7.53
7.45
7.27
7.20
7.38
7.80
8.37
8.88
9.20
9.28
9.20
9.07
8.99
9.00
9.04
8.98
8.68
8.07
7.10
5.86
4.47
3.11
1.97
1.15
0.66
0.37
0.09
-0.44
-1.36
-2.72
-4.40
-6.19
-7.81
-9.01
-9.63
-9.58
-8.90
-7.65
-5.94
-3.90
-1.64
0.66
2.86
4.76
6.21
7.13
7.52
7.48
7.17
6.77
6.39
6.10
5.93
5.84
5.80
5.77
5.72
5.60
5.43
5.22
5.01
4.83
4.67
4.48
4.22
3.85
3.35
2.71
1.93
1.02
0.02
-1.00
-1.91
-2.59
-2.99
-3.17
-3.33
-3.72
-4.57
-5.95
-7.75
-9.68
-11.39
-12.53
-12.86
-12.31
-10.98
-9.05
-6.83
-4.56
-2.44
-0.58
0.98
2.24
3.19
3.82
4.13
4.13
3.88
3.46
2.99
2.55
2.20
1.95
1.80
1.74
1.73
1.80
1.92
2.08
2.24
2.30
2.20
1.86
1.30
0.60
-0.09
-0.69
-1.18
-1.63
-2.17
-2.87
-3.72
-4.64
-5.56
-6.44
-7.32
-8.26
-9.28
-10.23
-10.94
-11.16
-10.78
-9.79
-8.32
-6.56
-4.71
-2.89
-1.18
0.33
1.60
2.54
3.07
3.18
2.90
2.40
1.89
1.61
1.71
2.24
3.09
4.05
4.90
5.51
5.89
6.12
6.29
6.41
6.41
6.18
5.68
5.00
4.29
3.74
3.41
3.25
3.12
2.87
2.38
1.67
0.77
-0.24
-1.31
-2.43
-3.60
-4.77
-5.90
-6.86
-7.55
-7.82
-7.57
-6.75
-5.35
-3.46
-1.21
1.19
3.50
5.51
7.05
8.09
8.67
8.90
8.91
8.79
8.58
8.32
8.10
7.98
8.04
8.25
8.51
8.68
8.65
8.38
7.89
7.26
6.53
5.77
5.00
4.25
3.50
2.67
1.64
0.31
-1.30
-3.08
-4.79
-6.20
-7.21
-7.87
-8.37
-8.95
-9.78
-10.90
-12.26
-13.71
-15.03
-16.02
-16.43
-16.12
-15.03
-13.23
-10.92
-8.38
-5.87
-3.65
-1.85
-0.49
0.46
1.12
1.55
1.81
1.92
1.88
1.68
1.41
1.18
1.06
1.09
1.22
1.38
1.55
1.70
1.82
1.90
1.91
1.75
1.38
0.83
0.17
-0.50
-1.10
-1.65
-2.17
-2.69
-3.22
-3.72
-4.18
-4.61
-5.05
-5.58
-6.27
-7.15
-8.18
-9.24
-10.12
-10.61
-10.51
-9.72
-8.25
-6.24
-3.91
-1.55
0.59
2.37
3.68
4.58
5.14
5.50
5.73
5.88
5.95
5.99
6.08
6.32
6.79
7.48
8.26
8.97
9.48
9.76
9.86
9.88
9.83
9.65
9.29
8.70
7.95
7.12
6.31
5.55
4.82
4.11
3.41
2.76
2.19
1.71
1.23
0.67
-0.11
-1.18
-2.56
-4.18
-5.88
-7.43
-8.57
-9.10
-8.91
-8.02
-6.61
-4.91
-3.23
-1.79
-0.73
-0.08
0.21
0.24
0.11
-0.16
-0.56
-1.07
-1.60
-2.05
-2.30
-2.31
-2.17
-2.02
-1.98
-2.05
-2.15
-2.18
-2.07
-1.87
-1.68
-1.55
-1.50
-1.50
-1.49
-1.50
-1.55
-1.71
-2.00
-2.40
-2.89
-3.47
-4.13
-4.85
-5.59
-6.30
-6.95
-7.62
-8.40
-9.31
-10.26
-11.02
-11.30
-10.90
-9.76
-8.05
-6.05
-4.02
-2.17
-0.61
0.68
1.70
2.46
2.93
3.07
2.87
2.38
1.75
1.14
0.75
0.66
0.87
1.29
1.80
2.32
2.85
3.37
3.85
4.14
4.10
3.63
2.82
1.91
1.19
0.85
0.84
0.89
0.70
0.05
-1.05
-2.39
-3.68
-4.70
-5.39
-5.82
-6.11
-6.37
-6.66
-7.06
-7.65
-8.47
-9.45
-10.37
-10.91
-10.73
-9.69
-7.84
-5.45
-2.87
-0.38
1.85
3.70
5.14
6.17
6.82
7.23
7.51
7.75
7.95
7.99
7.80
7.38
6.84
6.37
6.10
6.07
6.20
6.38
6.52
6.59
6.56
6.38
5.96
5.21
4.17
2.99
1.88
1.02
0.43
0.03
-0.38
-0.92
-1.61
-2.34
-2.95
-3.35
-3.59
-3.81
-4.19
-4.86
-5.87
-7.16
-8.61
-10.05
-11.33
-12.27
-12.68
-12.42
-11.45
-9.83
-7.77
-5.53
-3.40
-1.58
-0.18
0.80
1.44
1.81
2.02
2.09
2.05
1.94
1.82
1.78
1.89
2.20
2.74
3.44
4.18
4.82
5.21
5.29
5.10
4.70
4.25
3.83
3.50
3.23
2.96
2.62
2.18
1.67
1.13
0.64
0.23
-0.11
-0.44
-0.82
-1.30
-1.93
-2.73
-3.68
-4.81
-6.10
-7.52
-8.97
-10.28
-11.24
-11.65
-11.40
-10.54
-9.19
-7.55
-5.76
-3.90
-2.02
-0.15
1.61
3.14
4.27
4.92
5.12
5.00
4.73
4.46
4.29
4.28
4.44
4.75
5.17
5.59
5.90
6.05
6.04
5.98
6.01
6.22
6.57
6.91
7.03
6.81
6.24
5.45
4.66
4.00
3.45
2.90
2.13
1.00
-0.42
-1.92
-3.19
-4.01
-4.37
-4.45
-4.53
-4.81
-5.39
-6.20
-7.15
-8.15
-9.18
-10.19
-11.06
-11.54
-11.39
-10.45
-8.75
-6.52
-4.09
-1.76
0.28
1.92
3.16
4.05
4.65
5.02
5.23
5.34
5.42
5.56
5.85
6.37
7.14
8.10
9.06
9.82
10.21
10.21
9.96
9.64
9.46
9.47
9.59
9.67
9.55
9.17
8.58
7.87
7.10
6.31
5.49
4.64
3.77
2.92
2.15
1.50
0.99
0.57
0.16
-0.39
-1.25
-2.54
-4.26
-6.27
-8.28
-9.94
-10.93
-11.05
-10.29
-8.78
-6.76
-4.53
-2.35
-0.40
1.23
2.50
3.44
4.07
4.39
4.43
4.24
3.89
3.50
3.19
3.07
3.17
3.49
3.95
4.44
4.84
5.08
5.13
5.01
4.78
4.48
4.13
3.71
3.22
2.69
2.16
1.66
1.18
0.64
-0.05
-0.93
-1.97
-3.07
-4.11
-5.02
-5.78
-6.44
-7.09
-7.84
-8.76
-9.84
-11.01
-12.07
-12.78
-12.97
-12.53
-11.48
-9.99
-8.25
-6.43
-4.67
-3.04
-1.59
-0.34
0.75
1.68
2.47
3.11
3.52
3.67
3.59
3.42
3.29
3.32
3.53
3.81
4.05
4.14
4.06
3.87
3.65
3.39
3.07
2.61
1.94
1.05
0.02
-1.04
-1.97
-2.71
-3.26
-3.74
-4.29
-4.99
-5.83
-6.70
-7.49
-8.16
-8.78
-9.48
-10.32
-11.23
-12.02
-12.41
-12.20
-11.27
-9.64
-7.47
-5.02
-2.56
-0.34
1.44
2.73
3.54
3.98
4.17
4.15
3.94
3.53
2.99
2.46
2.13
2.11
2.36
2.71
2.94
2.90
2.61
2.24
1.99
2.01
2.27
2.64
2.91
2.93
2.62
1.99
1.12
0.12
-0.89
-1.83
-2.69
-3.48
-4.26
-5.07
-5.94
-6.89
-7.91
-9.01
-10.14
-11.22
-12.09
-12.61
-12.66
-12.24
-11.39
-10.21
-8.79
-7.20
-5.54
-3.88
-2.38
-1.13
-0.16
0.59
1.23
1.89
2.63
3.42
4.19
4.87
5.42
5.84
6.18
6.48
6.76
7.02
7.22
7.32
7.31
7.19
6.94
6.55
6.01
5.37
4.66
3.97
3.33
2.74
2.15
1.48
0.69
-0.17
-1.07
-1.91
-2.61
-3.23
-3.80
-4.47
-5.33
-6.41
-7.62
-8.74
-9.48
-9.62
-9.07
-7.85
-6.13
-4.07
-1.82
0.53
2.85
4.98
6.74
7.98
8.68
8.93
8.91
8.77
8.62
8.41
8.09
7.64
7.12
6.64
6.30
6.15
6.14
6.16
6.09
5.82
5.28
4.48
3.49
2.43
1.46
0.73
0.24
-0.08
-0.41
-0.90
-1.63
-2.54
-3.48
-4.32
-4.98
-5.49
-5.95
-6.46
-7.11
-7.93
-8.88
-9.86
-10.74
-11.31
-11.39
-10.85
-9.65
-7.88
-5.73
-3.48
-1.35
0.49
1.98
3.13
3.96
4.48
4.71
4.67
4.43
4.11
3.86
3.83
4.08
4.59
5.27
6.00
6.66
7.19
7.58
7.83
7.94
7.88
7.61
7.09
6.34
5.45
4.51
3.61
2.74
1.92
1.09
0.26
-0.57
-1.37
-2.07
-2.63
-3.05
-3.40
-3.75
-4.23
-4.93
-5.91
-7.16
-8.54
-9.85
-10.83
-11.27
-11.01
-10.04
-8.48
-6.53
-4.47
-2.54
-0.86
0.52
1.63
2.49
3.14
3.57
3.77
3.75
3.59
3.37
3.24
3.28
3.52
3.88
4.25
4.50
4.58
4.51
4.44
4.50
4.75
5.13
5.49
5.67
5.59
5.26
4.76
4.18
3.53
2.78
1.90
0.93
-0.03
-0.88
-1.62
-2.29
-3.02
-3.86
-4.81
-5.78
-6.68
-7.51
-8.34
-9.25
-10.24
-11.21
-11.94
-12.25
-11.97
-11.06
-9.59
-7.71
-5.64
-3.63
-1.94
-0.68
0.15
0.70
1.15
1.64
2.21
2.82
3.38
3.91
4.46
5.08
5.76
6.46
7.05
7.50
7.83
8.17
8.62
9.25
10.04
10.87
11.60
12.07
12.18
11.88
11.22
10.36
9.52
8.84
8.40
8.12
7.84
7.41
6.74
5.79
4.60
3.21
1.64
-0.08
-1.89
-3.73
-5.47
-6.99
-8.18
-8.93
-9.11
-8.66
-7.58
-5.98
-4.02
-1.94
0.03
1.71
2.97
3.77
4.15
4.17
3.94
3.54
3.05
2.53
2.08
1.79
1.73
1.95
2.38
2.93
3.47
3.98
4.48
5.01
5.59
6.10
6.35
6.19
5.63
4.78
3.87
3.10
2.57
2.24
1.94
1.53
0.93
0.19
-0.56
-1.19
-1.64
-1.95
-2.23
-2.66
-3.34
-4.29
-5.43
-6.60
-7.59
-8.17
-8.20
-7.55
-6.27
-4.45
-2.33
-0.18
1.75
3.28
4.39
5.16
5.76
6.33
6.93
7.50
7.90
8.02
7.85
7.52
7.20
7.04
7.09
7.27
7.45
7.53
7.46
7.30
7.12
6.96
6.79
6.54
6.12
5.53
4.80
4.00
3.17
2.34
1.50
0.66
-0.15
-0.91
-1.65
-2.40
-3.23
-4.19
-5.28
-6.50
-7.83
-9.28
-10.88
-12.59
-14.27
-15.69
-16.55
-16.62
-15.89
-14.52
-12.83
-11.16
-9.79
-8.80
-8.15
-7.72
-7.37
-7.05
-6.77
-6.55
-6.44
-6.38
-6.27
-5.98
-5.42
-4.63
-3.73
-2.86
-2.13
-1.58
-1.18
-0.92
-0.83
-0.98
-1.42
-2.14
-3.00
-3.82
-4.48
-4.89
-5.10
-5.19
-5.25
-5.34
-5.46
-5.64
-5.87
-6.20
-6.68
-7.33
-8.15
-9.08
-9.99
-10.74
-11.22
-11.33
-11.07
-10.44
-9.47
-8.18
-6.61
-4.89
-3.17
-1.62
-0.36
0.60
1.29
1.79
2.15
2.39
2.52
2.60
2.73
3.02
3.56
4.35
5.28
6.20
6.96
7.43
7.61
7.54
7.37
7.24
7.23
7.31
7.37
7.24
6.82
6.10
5.17
4.15
3.13
2.14
1.20
0.27
-0.64
-1.52
-2.35
-3.16
-4.00
-4.98
-6.17
-7.56
-9.05
-10.38
-11.19
-11.12
-9.96
-7.77
-4.87
-1.73
1.16
3.52
5.27
6.51
7.43
8.20
8.93
9.67
10.41
11.12
11.75
12.23
12.50
12.57
12.55
12.55
12.68
12.91
13.09
13.10
12.85
12.33
11.64
10.84
9.95
8.91
7.67
6.25
4.73
3.26
1.93
0.76
-0.32
-1.36
-2.40
-3.38
-4.26
-4.98
-5.61
-6.26
-7.07
-8.14
-9.46
-10.87
-12.13
-12.92
-12.98
-12.18
-10.56
-8.32
-5.82
-3.39
-1.30
0.34
1.59
2.59
3.49
4.33
5.07
5.62
5.88
5.85
5.58
5.22
4.86
4.58
4.39
4.25
4.10
3.88
3.56
3.13
2.63
2.08
1.53
0.97
0.38
-0.28
-0.99
-1.71
-2.34
-2.82
-3.15
-3.42
-3.78
-4.38
-5.34
-6.67
-8.31
-10.11
-11.90
-13.49
-14.70
-15.37
-15.41
-14.76
-13.45
-11.54
-9.23
-6.73
-4.30
-2.13
-0.31
1.19
2.52
3.77
4.99
6.14
7.14
7.95
8.60
9.14
9.65
10.09
10.39
10.42
10.12
9.56
8.88
8.30
7.95
7.84
7.86
7.80
7.51
6.89
5.94
4.75
3.44
2.12
0.88
-0.21
-1.16
-2.00
-2.81
-3.70
-4.81
-6.19
-7.85
-9.68
-11.49
-13.06
-14.21
-14.80
-14.78
-14.13
-12.87
-11.13
-9.03
-6.77
-4.53
-2.44
-0.55
1.14
2.63
3.92
4.99
5.83
6.51
7.07
7.57
8.00
8.31
8.45
8.46
8.42
8.48
8.65
8.87
8.98
8.83
8.41
7.80
7.18
6.67
6.29
5.94
5.49
4.86
4.00
2.97
1.82
0.59
-0.65
-1.86
-3.00
-4.09
-5.18
-6.41
-7.86
-9.50
-11.17
-12.61
-13.53
-13.72
-13.16
-11.93
-10.25
-8.32
-6.26
-4.14
-1.96
0.24
2.33
4.13
5.50
6.38
6.90
7.22
7.55
8.01
8.61
9.30
10.03
10.81
11.64
12.49
13.24
13.77
13.95
13.76
13.29
12.62
11.81
10.87
9.77
8.54
7.23
5.99
4.90
3.99
3.17
2.28
1.24
0.01
-1.33
-2.69
-3.96
-5.12
-6.21
-7.33
-8.58
-10.00
-11.49
-12.85
-13.85
-14.24
-13.92
-12.90
-11.34
-9.47
-7.52
-5.64
-3.88
-2.26
-0.76
0.62
1.83
2.86
3.70
4.42
5.12
5.89
6.72
7.53
8.18
8.54
8.58
8.37
8.06
7.79
7.60
7.46
7.25
6.94
6.55
6.16
5.82
5.54
5.28
4.94
4.49
3.94
3.31
2.65
1.95
1.19
0.40
-0.36
-1.04
-1.61
-2.16
-2.79
-3.62
-4.74
-6.11
-7.67
-9.21
-10.54
-11.34
-11.40
-10.57
-8.91
-6.71
-4.33
-2.16
-0.38
0.96
2.01
2.88
3.63
4.23
4.61
4.77
4.78
4.81
5.03
5.52
6.23
7.04
7.79
8.38
8.80
9.13
9.41
9.66
9.80
9.76
9.47
8.97
8.28
7.49
6.63
5.73
4.86
4.08
3.50
3.16
3.05
3.07
3.07
2.96
2.70
2.38
2.07
1.85
1.67
1.42
0.92
0.00
-1.39
-3.14
-4.97
-6.56
-7.54
-7.72
-7.06
-5.69
-3.87
-1.82
0.27
2.30
4.20
5.93
7.36
8.38
8.95
9.05
8.77
8.27
7.71
7.26
7.06
7.16
7.53
8.08
8.67
9.17
9.53
9.71
9.73
9.60
9.33
8.92
8.40
7.81
7.21
6.61
5.98
5.29
4.51
3.67
2.84
2.04
1.22
0.37
-0.56
-1.54
-2.54
-3.55
-4.60
-5.78
-7.17
-8.80
-10.59
-12.42
-14.10
-15.48
-16.42
-16.83
-16.63
-15.82
-14.45
-12.71
-10.84
-9.04
-7.44
-6.03
-4.74
-3.49
-2.27
-1.20
-0.44
-0.11
-0.21
-0.56
-0.91
-1.03
-0.80
-0.25
0.50
1.31
2.09
2.77
3.28
3.56
3.59
3.39
3.04
2.63
2.18
1.67
1.03
0.20
-0.82
-1.99
-3.24
-4.50
-5.71
-6.81
-7.72
-8.40
-8.86
-9.17
-9.47
-9.85
-10.39
-11.07
-11.84
-12.57
-13.08
-13.17
-12.60
-11.26
-9.16
-6.48
-3.56
-0.75
1.69
3.61
4.99
5.93
6.52
6.82
6.96
7.02
7.11
7.28
7.57
7.90
8.17
8.28
8.22
8.09
8.04
8.17
8.43
8.64
8.59
8.15
7.38
6.46
5.57
4.76
3.93
2.92
1.56
-0.11
-1.92
-3.64
-5.06
-6.11
-6.85
-7.40
-7.88
-8.41
-9.00
-9.66
-10.37
-11.13
-11.93
-12.78
-13.61
-14.26
-14.50
-14.08
-12.85
-10.90
-8.47
-5.93
-3.63
-1.74
-0.30
0.79
1.68
2.48
3.22
3.89
4.44
4.86
5.15
5.34
5.52
5.76
6.10
6.52
6.91
7.17
7.24
7.09
6.84
6.57
6.36
6.21
6.04
5.80
5.48
5.16
4.94
4.93
5.11
5.39
5.60
5.61
5.35
4.83
4.15
3.44
2.78
2.15
1.52
0.77
-0.16
-1.30
-2.63
-4.03
-5.41
-6.62
-7.49
-7.89
-7.68
-6.77
-5.18
-3.06
-0.70
1.55
3.39
4.67
5.42
5.81
6.07
6.33
6.64
6.94
7.16
7.30
7.44
7.65
7.98
8.35
8.64
8.74
8.59
8.22
7.69
7.08
6.39
5.63
4.78
3.88
2.98
2.17
1.47
0.88
0.30
-0.40
-1.28
-2.36
-3.57
-4.77
-5.83
-6.68
-7.29
-7.67
-7.89
-8.02
-8.21
-8.65
-9.52
-10.90
-12.74
-14.74
-16.49
-17.59
-17.78
-17.02
-15.46
-13.37
-11.02
-8.66
-6.50
-4.69
-3.32
-2.41
-1.90
-1.64
-1.51
-1.40
-1.26
-1.08
-0.87
-0.63
-0.33
0.01
0.36
0.67
0.87
0.90
0.74
0.37
-0.20
-0.90
-1.67
-2.41
-3.07
-3.62
-4.06
-4.41
-4.68
-4.86
-4.95
-5.04
-5.21
-5.54
-6.05
-6.68
-7.31
-7.85
-8.25
-8.60
-8.97
-9.41
-9.85
-10.11
-9.99
-9.32
-8.10
-6.46
-4.55
-2.51
-0.39
1.80
4.01
6.18
8.15
9.78
10.98
11.75
12.12
12.21
12.07
11.82
11.55
11.33
11.20
11.16
11.14
11.09
10.96
10.78
10.57
10.34
10.05
9.64
9.05
8.29
7.47
6.70
6.05
5.48
4.92
4.24
3.38
2.36
1.26
0.16
-0.88
-1.88
-2.85
-3.81
-4.75
-5.61
-6.39
-7.13
-7.91
-8.79
-9.75
-10.67
-11.39
-11.78
-11.77
-11.35
-10.62
-9.64
-8.48
-7.22
-5.94
-4.76
-3.81
-3.16
-2.79
-2.59
-2.41
-2.09
-1.59
-0.96
-0.31
0.25
0.66
0.93
1.10
1.25
1.43
1.66
1.93
2.25
2.58
2.90
3.13
3.19
2.99
2.52
1.84
1.05
0.27
-0.43
-1.02
-1.51
-1.96
-2.39
-2.82
-3.28
-3.81
-4.46
-5.32
-6.41
-7.69
-9.03
-10.21
-10.93
-11.00
-10.35
-9.06
-7.41
-5.70
-4.18
-2.96
-2.01
-1.18
-0.36
0.48
1.31
1.99
2.42
2.62
2.67
2.73
2.90
3.17
3.44
3.60
3.58
3.45
3.35
3.38
3.59
3.88
4.10
4.11
3.86
3.37
2.69
1.89
0.99
0.01
-1.03
-2.11
-3.18
-4.18
-5.09
-5.90
-6.62
-7.27
-7.92
-8.61
-9.43
-10.35
-11.33
-12.21
-12.79
-12.86
-12.29
-11.10
-9.42
-7.50
-5.58
-3.82
-2.30
-1.01
0.15
1.28
2.47
3.73
4.96
6.02
6.71
6.95
6.82
6.56
6.41
6.58
7.06
7.75
8.47
9.11
9.65
10.08
10.41
10.55
10.46
10.12
9.63
9.16
8.86
8.76
8.76
8.67
8.33
7.66
6.72
5.60
4.38
3.06
1.56
-0.17
-2.15
-4.31
-6.52
-8.62
-10.52
-12.11
-13.32
-14.03
-14.16
-13.65
-12.59
-11.13
-9.54
-8.06
-6.87
-6.04
-5.55
-5.28
-5.12
-5.05
-5.06
-5.21
-5.53
-5.97
-6.45
-6.80
-6.87
-6.59
-5.97
-5.13
-4.29
-3.63
-3.28
-3.26
-3.51
-3.88
-4.26
-4.58
-4.87
-5.19
-5.64
-6.25
-6.97
-7.67
-8.17
-8.38
-8.26
-7.94
-7.61
-7.51
-7.82
-8.53
-9.50
-10.43
-11.03
-11.06
-10.42
-9.15
-7.36
-5.18
-2.78
-0.32
2.06
4.24
6.17
7.87
9.38
10.78
12.12
13.45
14.76
16.09
17.42
18.74
19.99
21.09
21.95
22.49
22.70
22.60
22.27
21.75
21.04
20.08
18.83
17.30
15.61
13.93
12.46
11.32
10.51
9.93
9.46
8.99
8.48
7.89
7.17
6.21
4.84
2.95
0.48
-2.42
-5.49
-8.32
-10.53
-11.87
-12.28
-11.90
-11.01
-9.92
-8.89
-8.09
-7.64
-7.58
-7.87
-8.34
-8.75
-8.82
-8.43
-7.63
-6.63
-5.73
-5.14
-4.90
-4.89
-4.96
-4.96
-4.84
-4.61
-4.25
-3.69
-2.90
-1.86
-0.69
0.46
1.43
2.15
2.62
2.92
3.13
3.24
3.23
3.05
2.70
2.21
1.53
0.60
-0.69
-2.43
-4.54
-6.78
-8.81
-10.27
-10.93
-10.80
-10.07
-9.06
-8.12
-7.47
-7.18
-7.17
-7.24
-7.18
-6.86
-6.26
-5.45
-4.59
-3.79
-3.08
-2.40
-1.68
-0.89
-0.09
0.65
1.24
1.71
2.12
2.56
3.08
3.63
4.09
4.32
4.18
3.62
2.66
1.43
0.09
-1.17
-2.21
-2.97
-3.51
-3.96
-4.52
-5.33
-6.46
-7.83
-9.29
-10.61
-11.54
-11.87
-11.49
-10.43
-8.79
-6.79
-4.63
-2.50
-0.50
1.26
2.73
3.88
4.72
5.35
5.87
6.36
6.89
7.42
7.90
8.24
8.42
8.49
8.49
8.46
8.40
8.29
8.10
7.84
7.58
7.38
7.22
7.07
6.81
6.40
5.85
5.23
4.66
4.19
3.79
3.36
2.78
1.97
0.95
-0.21
-1.39
-2.49
-3.41
-4.06
-4.33
-4.08
-3.24
-1.84
0.00
2.05
4.01
5.69
6.99
7.93
8.68
9.39
10.16
10.97
11.71
12.27
12.58
12.65
12.55
12.37
12.18
11.99
11.78
11.56
11.36
11.17
10.97
10.68
10.18
9.42
8.41
7.20
5.91
4.62
3.38
2.24
1.20
0.28
-0.57
-1.37
-2.20
-3.14
-4.25
-5.59
-7.13
-8.73
-10.18
-11.17
-11.41
-10.74
-9.19
-7.03
-4.63
-2.34
-0.40
1.16
2.39
3.40
4.21
4.78
5.06
5.08
4.90
4.64
4.39
4.19
4.01
3.78
3.49
3.18
2.92
2.76
2.72
2.75
2.76
2.64
2.32
1.78
1.06
0.25
-0.56
-1.32
-2.04
-2.77
-3.53
-4.36
-5.23
-6.15
-7.15
-8.26
-9.52
-10.82
-11.95
-12.56
-12.35
-11.22
-9.30
-6.96
-4.63
-2.65
-1.17
-0.15
0.60
1.25
1.91
2.54
3.01
3.23
3.20
3.01
2.82
2.78
2.95
3.28
3.69
4.06
4.34
4.55
4.68
4.73
4.63
4.32
3.76
2.97
2.02
1.02
0.04
-0.86
-1.66
-2.34
-2.97
-3.63
-4.44
-5.49
-6.84
-8.42
-10.08
-11.59
-12.69
-13.16
-12.88
-11.83
-10.13
-8.03
-5.82
-3.79
-2.13
-0.87
0.07
0.88
1.74
2.72
3.78
4.77
5.56
6.07
6.35
6.56
6.81
7.11
7.39
7.49
7.32
6.91
6.37
5.83
5.35
4.86
4.23
3.39
2.35
1.28
0.37
-0.26
-0.66
-0.94
-1.28
-1.78
-2.47
-3.31
-4.29
-5.41
-6.68
-8.07
-9.48
-10.68
-11.40
-11.39
-10.56
-8.97
-6.81
-4.41
-2.02
0.12
1.94
3.45
4.73
5.89
7.05
8.27
9.52
10.74
11.80
12.60
13.07
13.29
13.34
13.35
13.41
13.53
13.67
13.72
13.62
13.27
12.66
11.81
10.81
9.79
8.88
8.15
7.57
7.04
6.42
5.60
4.56
3.32
1.92
0.40
-1.23
-2.99
-4.88
-6.87
-8.86
-10.68
-12.15
-13.10
-13.39
-13.01
-12.01
-10.53
-8.72
-6.78
-4.90
-3.24
-1.91
-0.98
-0.44
-0.20
-0.15
-0.16
-0.16
-0.09
0.05
0.27
0.55
0.92
1.40
2.01
2.72
3.44
4.03
4.40
4.47
4.33
4.07
3.81
3.58
3.29
2.83
2.14
1.26
0.32
-0.54
-1.25
-1.81
-2.28
-2.75
-3.28
-3.95
-4.87
-6.12
-7.70
-9.44
-11.02
-12.06
-12.29
-11.65
-10.28
-8.49
-6.57
-4.73
-3.03
-1.52
-0.16
0.99
1.92
2.60
3.03
3.28
3.38
3.39
3.37
3.38
3.47
3.68
4.02
4.47
4.99
5.56
6.12
6.63
7.05
7.29
7.25
6.87
6.12
5.04
3.76
2.46
1.29
0.33
-0.42
-1.06
-1.70
-2.49
-3.43
-4.50
-5.55
-6.47
-7.22
-7.86
-8.51
-9.25
-10.05
-10.70
-10.91
-10.43
-9.17
-7.24
-4.96
-2.69
-0.73
0.82
2.05
3.14
4.29
5.57
6.94
8.26
9.37
10.15
10.60
10.79
10.85
10.91
11.09
11.43
11.95
12.57
13.13
13.49
13.53
13.25
12.74
12.15
11.58
11.08
10.63
10.23
9.85
9.48
9.08
8.59
7.92
7.05
6.06
5.12
4.41
3.97
3.74
3.52
3.13
2.50
1.65
0.74
-0.07
-0.62
-0.76
-0.33
0.80
2.70
5.33
8.47
11.85
15.15
18.20
20.93
23.28
25.19
26.54
27.18
27.05
26.18
24.75
23.04
21.44
20.29
19.94
20.55
22.04
24.08
26.08
27.37
27.40
25.82
22.57
17.82
11.81
4.77
-3.13
-11.72
-20.81
-30.09
-39.13
-47.40
-54.35
-59.58
-62.91
-64.42
-64.47
-63.55
-62.15
-60.67
-59.32
-58.19
-57.27
-56.57
-56.16
-56.29
-57.22
-59.22
-62.34
-66.29
-70.49
-74.27
-77.07
-78.69
-79.40
-79.70
-80.17
-81.18
-82.66
-83.98
-83.86
-80.48
-71.76
-56.06
-33.01
-4.02
27.75
58.07
82.86
99.25
106.16
104.19
95.06
80.99
64.21
46.79
30.48
16.62
5.89
-1.79
-7.17
-11.35
-15.34
-19.72
-24.59
-29.60
-34.28
-38.18
-41.08
-42.98
-44.04
-44.43
-44.25
-43.42
-41.68
-38.70
-34.22
-28.16
-20.67
-12.10
-2.88
6.65
16.29
25.97
35.66
45.24
54.36
62.55
69.32
74.30
77.41
78.83
79.02
78.52
77.73
76.90
76.04
75.07
73.93
72.53
70.80
68.63
65.85
62.37
58.18
53.40
48.23
42.92
37.68
32.68
28.04
23.85
20.12
16.73
13.56
10.47
7.49
4.81
2.76
1.59
1.40
2.03
3.10
4.22
5.16
5.80
6.31
6.88
7.54
8.13
8.12
6.83
3.59
-1.98
-9.86
-19.53
-30.02
-39.98
-47.86
-52.18
-51.76
-46.14
-35.72
-21.87
-6.58
7.83
19.32
26.39
28.32
25.19
17.70
7.17
-4.75
-16.15
-25.25
-30.69
-31.82
-28.87
-22.75
-14.77
-6.22
1.98
9.34
15.66
20.73
24.24
25.67
24.63
21.08
15.54
8.91
2.18
-4.08
-9.91
-15.96
-23.06
-31.67
-41.51
-51.44
-60.02
-66.05
-69.29
-70.42
-70.66
-71.16
-72.33
-73.88
-75.16
-75.73
-75.66
-75.30
-74.80
-73.67
-70.81
-64.91
-54.97
-40.69
-22.39
-0.91
22.58
46.42
68.16
84.51
92.05
88.54
74.28
52.87
30.68
14.94
11.24
21.37
42.47
68.05
90.37
103.29
104.27
94.75
79.03
62.11
47.80
37.70
31.49
27.78
25.19
22.88
20.42
17.47
13.45
7.72
0.11
-8.81
-17.76
-25.22
-30.05
-32.03
-31.84
-30.72
-29.92
-30.19
-31.60
-33.66
-35.62
-36.75
-36.58
-34.97
-32.15
-28.58
-24.80
-21.28
-18.24
-15.59
-13.02
-10.17
-6.80
-2.91
1.30
5.47
9.24
12.37
14.76
16.47
17.63
18.37
18.78
18.88
18.64
18.00
17.01
15.72
14.29
12.84
11.49
10.24
9.03
7.75
6.30
4.66
2.93
1.32
0.06
-0.64
-0.75
-0.37
0.31
1.10
1.83
2.44
2.90
3.25
3.44
3.45
3.28
2.92
2.45
1.93
1.45
1.10
0.98
1.10
1.48
2.02
2.54
2.90
2.99
2.82
2.43
1.91
1.29
0.60
-0.14
-0.90
-1.58
-2.07
-2.34
-2.45
-2.56
-2.85
-3.42
-4.26
-5.31
-6.48
-7.70
-8.93
-10.07
-10.98
-11.50
-11.51
-11.00
-10.09
-8.96
-7.77
-6.59
-5.41
-4.17
-2.88
-1.61
-0.44
0.56
1.37
2.02
2.57
3.01
3.30
3.39
3.26
2.96
2.60
2.32
2.20
2.28
2.54
2.91
3.31
3.67
3.93
4.02
3.85
3.39
2.66
1.80
0.97
0.35
-0.03
-0.23
-0.46
-0.90
-1.72
-2.92
-4.39
-5.94
-7.36
-8.53
-9.33
-9.69
-9.52
-8.80
-7.53
-5.84
-3.94
-2.11
-0.59
0.55
1.35
1.99
2.62
3.28
3.90
4.33
4.45
4.27
3.96
3.68
3.57
3.64
3.78
3.84
3.72
3.42
3.03
2.63
2.31
2.08
1.87
1.56
1.07
0.36
-0.50
-1.38
-2.15
-2.77
-3.28
-3.81
-4.48
-5.32
-6.28
-7.25
-8.09
-8.70
-8.98
-8.89
-8.35
-7.38
-6.05
-4.52
-3.02
-1.71
-0.64
0.23
1.00
1.72
2.35
2.79
2.95
2.84
2.58
2.31
2.16
2.17
2.34
2.65
3.06
3.55
4.04
4.40
4.47
4.16
3.53
2.71
1.89
1.14
0.47
-0.24
-1.03
-1.91
-2.78
-3.52
-4.10
-4.57
-5.07
-5.72
-6.62
-7.73
-8.95
-10.12
-11.04
-11.54
-11.44
-10.70
-9.40
-7.75
-6.02
-4.44
-3.12
-1.99
-0.96
0.09
1.16
2.16
2.95
3.44
3.64
3.63
3.59
3.59
3.70
3.87
4.04
4.17
4.22
4.20
4.14
4.04
3.88
3.69
3.49
3.33
3.19
3.01
2.69
2.17
1.46
0.64
-0.14
-0.82
-1.42
-2.04
-2.82
-3.84
-5.09
-6.46
-7.80
-8.91
-9.64
-9.91
-9.71
-9.12
-8.23
-7.11
-5.78
-4.24
-2.49
-0.64
1.15
2.70
3.88
4.70
5.21
5.48
5.54
5.40
5.07
4.65
4.30
4.19
4.42
4.94
5.58
6.14
6.48
6.54
6.43
6.26
6.07
5.85
5.48
4.87
3.99
2.93
1.85
0.90
0.16
-0.43
-1.00
-1.70
-2.56
-3.57
-4.61
-5.61
-6.54
-7.39
-8.15
-8.75
-9.06
-8.97
-8.42
-7.47
-6.23
-4.84
-3.39
-1.94
-0.49
0.94
2.30
3.48
4.34
4.77
4.75
4.39
3.90
3.51
3.43
3.71
4.28
4.97
5.63
6.17
6.57
6.82
6.89
6.75
6.36
5.76
5.04
4.33
3.72
3.23
2.83
2.44
1.99
1.43
0.73
-0.12
-1.11
-2.18
-3.22
-4.13
-4.89
-5.50
-6.10
-6.78
-7.54
-8.25
-8.71
-8.71
-8.13
-7.01
-5.50
-3.82
-2.13
-0.57
0.80
1.94
2.82
3.39
3.65
3.63
3.45
3.28
3.27
3.47
3.83
4.26
4.67
5.06
5.48
5.99
6.51
6.90
6.98
6.63
5.91
5.00
4.10
3.33
2.69
2.07
1.36
0.54
-0.34
-1.22
-2.03
-2.80
-3.53
-4.28
-5.07
-5.91
-6.80
-7.77
-8.82
-9.96
-11.07
-12.00
-12.53
-12.43
-11.54
-9.85
-7.53
-4.90
-2.34
-0.15
1.50
2.68
3.51
4.18
4.73
5.13
5.27
5.13
4.79
4.42
4.17
4.15
4.35
4.70
5.15
5.64
6.14
6.57
6.83
6.81
6.48
5.90
5.17
4.37
3.53
2.58
1.49
0.36
-0.70
-1.51
-2.03
-2.35
-2.67
-3.14
-3.84
-4.67
-5.53
-6.36
-7.21
-8.14
-9.16
-10.15
-10.83
-10.92
-10.27
-8.95
-7.22
-5.36
-3.60
-2.04
-0.61
0.76
2.06
3.22
4.08
4.54
4.61
4.39
4.05
3.71
3.47
3.34
3.30
3.35
3.48
3.67
3.86
3.94
3.85
3.54
3.02
2.39
1.74
1.15
0.68
0.28
-0.11
-0.63
-1.38
-2.43
-3.74
-5.17
-6.52
-7.64
-8.55
-9.38
-10.29
-11.37
-12.46
-13.26
-13.44
-12.76
-11.25
-9.18
-6.89
-4.66
-2.65
-0.85
0.76
2.20
3.38
4.19
4.56
4.55
4.31
4.05
3.93
3.99
4.18
4.39
4.57
4.72
4.90
5.14
5.38
5.52
5.44
5.10
4.55
3.91
3.29
2.72
2.16
1.48
0.61
-0.49
-1.76
-3.03
-4.19
-5.15
-5.96
-6.76
-7.70
-8.91
-10.40
-12.09
-13.77
-15.20
-16.11
-16.29
-15.59
-13.99
-11.64
-8.79
-5.83
-3.08
-0.77
1.01
2.36
3.41
4.26
4.95
5.48
5.81
5.98
6.06
6.16
6.36
6.66
7.01
7.30
7.48
7.52
7.44
7.28
7.06
6.76
6.35
5.80
5.09
4.21
3.19
2.06
0.83
-0.47
-1.75
-2.91
-3.88
-4.65
-5.36
-6.20
-7.38
-9.01
-11.00
-13.10
-15.03
-16.56
-17.64
-18.30
-18.60
-18.50
-17.82
-16.38
-14.11
-11.25
-8.28
-5.80
-4.33
-4.03
-4.68
-5.72
-6.55
-6.73
-6.17
-5.11
-4.04
-3.46
-3.71
-4.77
-6.26
-7.60
-8.15
-7.53
-5.75
-3.23
-0.65
1.31
2.20
2.08
1.74
2.78
7.59
18.77
38.20
65.91
99.60
134.85
166.41
189.92
203.24
206.82
202.94
194.30
182.91
169.74
155.11
139.45
123.72
109.17
96.75
86.58
77.97
69.81
61.14
51.47
40.69
28.68
15.00
-1.03
-19.90
-41.31
-63.94
-85.57
-103.87
-117.09
-124.68
-127.38
-126.83
-124.99
-123.63
-123.95
-126.52
-131.21
-137.28
-143.54
-148.71
-151.89
-152.94
-152.56
-151.99
-152.43
-154.36
-157.30
-159.94
-160.78
-158.73
-153.60
-146.06
-137.28
-128.36
-119.87
-111.56
-102.43
-91.32
-77.46
-61.10
-43.57
-26.76
-12.37
-1.03
7.97
16.28
25.69
37.30
51.10
66.21
81.36
95.33
107.12
115.88
120.65
120.54
114.85
103.48
87.06
66.97
45.06
23.28
3.32
-13.66
-27.15
-37.13
-43.74
-46.83
-45.55
-38.44
-24.06
-1.94
26.65
58.45
88.74
112.44
125.45
125.71
113.85
93.06
68.22
44.66
26.75
16.89
15.12
19.64
27.70
36.62
44.46
50.24
53.74
55.36
55.96
56.63
58.34
61.38
65.11
68.07
68.59
65.50
58.54
48.48
36.84
25.48
16.26
10.56
8.78
9.88
11.35
9.88
2.70
-11.02
-29.51
-48.85
-64.60
-73.43
-74.28
-68.32
-57.97
-45.79
-33.65
-22.58
-13.07
-5.38
0.32
3.97
5.75
6.10
5.59
4.68
3.56
2.08
-0.05
-3.12
-7.14
-11.78
-16.37
-20.07
-22.17
-22.33
-20.71
-17.84
-14.43
-11.04
-7.96
-5.12
-2.22
1.04
4.80
8.93
13.02
16.47
18.63
19.00
17.41
14.12
9.83
5.55
2.26
0.63
0.77
2.25
4.34
6.36
8.02
9.45
11.03
13.00
15.23
17.12
17.82
16.54
12.94
7.30
0.64
-5.39
-8.93
-8.50
-3.74
4.10
12.30
17.47
16.82
9.27
-4.14
-20.78
-37.59
-52.27
-63.83
-72.47
-78.88
-83.75
-87.47
-90.16
-91.72
-91.81
-89.79
-84.99
-77.12
-66.77
-55.64
-46.17
-40.72
-40.70
-46.01
-55.18
-65.94
-76.07
-84.03
-89.12
-91.32
-90.92
-88.16
-83.15
-75.73
-65.74
-53.17
-38.26
-21.59
-3.94
13.85
30.97
46.68
60.39
71.70
80.40
86.53
90.28
91.96
91.95
90.60
88.18
84.88
80.80
75.97
70.51
64.64
58.73
53.21
48.40
44.40
41.06
38.03
34.97
31.69
28.27
24.96
22.04
19.71
17.96
16.65
15.55
14.42
13.16
11.76
10.30
8.98
7.96
7.32
6.98
6.73
6.33
5.61
4.67
3.80
3.41
3.79
4.97
6.63
8.19
9.02
8.62
6.80
3.63
-0.58
-5.46
-10.59
-15.57
-20.05
-23.73
-26.40
-28.02
-28.76
-28.96
-28.98
-29.12
-29.47
-29.93
-30.21
-29.97
-28.96
-27.00
-24.05
-20.21
-15.70
-10.92
-6.29
-2.23
1.04
3.52
5.38
6.84
7.93
8.52
8.33
7.14
4.94
2.00
-1.21
-4.20
-6.60
-8.28
-9.29
-9.78
-9.84
-9.54
-8.93
-8.10
-7.23
-6.51
-6.13
-6.16
-6.55
-7.09
-7.56
-7.76
-7.64
-7.24
-6.75
-6.36
-6.27
-6.56
-7.21
-8.02
-8.71
-8.96
-8.54
-7.39
-5.65
-3.61
-1.61
0.11
1.49
2.64
3.77
5.00
6.34
7.70
8.94
10.01
10.98
11.94
12.95
13.92
14.69
15.08
15.03
14.59
13.91
13.12
12.29
11.41
10.38
9.12
7.59
5.84
3.98
2.14
0.40
-1.27
-2.97
-4.84
-6.93
-9.16
-11.33
-13.21
-14.71
-15.86
-16.82
-17.77
-18.83
-20.06
-21.46
-23.01
-24.63
-26.19
-27.47
-28.15
-27.98
-26.80
-24.56
-21.36
-17.41
-12.99
-8.38
-3.88
0.30
4.02
7.24
9.99
12.33
14.32
15.97
17.27
18.22
18.83
19.17
19.33
19.41
19.51
19.68
19.89
20.05
20.05
19.79
19.25
18.47
17.57
16.61
15.66
14.69
13.66
12.52
11.27
9.99
8.75
7.63
6.64
5.70
4.69
3.53
2.19
0.73
-0.80
-2.38
-4.05
-5.89
-7.87
-9.83
-11.49
-12.54
-12.72
-11.94
-10.27
-7.87
-4.92
-1.59
1.98
5.64
9.18
12.41
15.19
17.45
19.23
20.64
21.77
22.67
23.37
23.88
24.29
24.69
25.22
26.00
27.05
28.35
29.75
31.15
32.46
33.63
34.60
35.33
35.70
35.61
35.02
33.97
32.56
30.88
28.95
26.72
24.22
21.58
19.08
17.03
15.56
14.50
13.48
12.07
10.07
7.55
4.82
2.12
-0.48
-3.23
-6.43
-10.22
-14.42
-18.58
-22.14
-24.69
-26.07
-26.38
-25.85
-24.64
-22.81
-20.39
-17.41
-14.01
-10.50
-7.26
-4.66
-2.99
-2.42
-2.97
-4.49
-6.61
-8.58
-9.35
-7.78
-3.08
4.77
14.81
25.31
34.19
39.64
40.50
36.48
28.11
16.67
4.16
-6.92
-14.14
-15.97
-12.53
-5.64
1.81
7.13
8.92
7.37
3.86
-0.09
-3.67
-6.96
-10.56
-15.06
-20.64
-27.26
-34.84
-43.23
-51.94
-59.80
-64.90
-65.29
-59.77
-48.53
-33.13
-16.00
0.50
14.68
25.80
33.80
38.97
41.63
42.18
41.16
39.28
37.30
35.77
34.88
34.49
34.18
33.50
32.16
30.13
27.68
25.25
23.25
21.89
21.09
20.54
19.84
18.75
17.25
15.50
13.75
12.17
10.78
9.50
8.23
6.93
5.64
4.47
3.51
2.76
2.22
1.82
1.48
1.16
0.75
0.21
-0.50
-1.39
-2.38
-3.39
-4.31
-5.10
-5.80
-6.49
-7.28
-8.18
-9.11
-9.90
-10.37
-10.41
-10.05
-9.38
-8.59
-7.79
-7.04
-6.33
-5.61
-4.90
-4.22
-3.63
-3.15
-2.73
-2.30
-1.81
-1.23
-0.60
0.02
0.59
1.11
1.60
2.08
2.55
2.96
3.23
3.32
3.21
2.97
2.69
2.46
2.37
2.39
2.43
2.40
2.20
1.81
1.30
0.74
0.19
-0.34
-0.86
-1.44
-2.11
-2.87
-3.69
-4.49
-5.18
-5.69
-6.00
-6.17
-6.31
-6.57
-7.04
-7.74
-8.58
-9.38
-9.94
-10.10
-9.83
-9.20
-8.30
-7.26
-6.13
-4.95
-3.77
-2.65
-1.68
-0.97
-0.54
-0.31
-0.14
0.13
0.56
1.11
1.68
2.17
2.54
2.80
2.94
2.94
2.77
2.40
1.93
1.52
1.35
1.46
1.76
2.05
2.14
1.98
1.62
1.22
0.89
0.66
0.44
0.10
-0.44
-1.22
-2.21
-3.29
-4.32
-5.17
-5.71
-5.89
-5.76
-5.48
-5.28
-5.39
-5.91
-6.85
-8.10
-9.43
-10.66
-11.58
-12.10
-12.18
-11.90
-11.36
-10.69
-10.05
-9.55
-9.22
-9.03
-8.89
-8.64
-8.18
-7.49
-6.66
-5.83
-5.13
-4.62
-4.22
-3.81
-3.23
-2.40
-1.32
-0.07
1.22
2.42
3.38
4.02
4.31
4.34
4.21
4.09
4.04
4.09
4.16
4.13
3.94
3.60
3.14
2.68
2.26
1.90
1.55
1.16
0.68
0.12
-0.51
-1.19
-1.89
-2.62
-3.38
-4.13
-4.77
-5.21
-5.34
-5.11
-4.53
-3.72
-2.79
-1.87
-1.06
-0.40
0.14
0.60
1.02
1.45
1.85
2.17
2.34
2.30
2.05
1.68
1.31
1.07
1.00
1.11
1.29
1.42
1.44
1.34
1.17
1.02
0.95
0.94
0.91
0.80
0.61
0.37
0.11
-0.15
-0.45
-0.83
-1.31
-1.83
-2.31
-2.67
-2.90
-3.11
-3.41
-3.94
-4.74
-5.78
-6.93
-8.01
-8.82
-9.15
-8.90
-8.05
-6.72
-5.12
-3.52
-2.08
-0.90
0.03
0.74
1.30
1.70
1.97
2.15
2.28
2.42
2.62
2.88
3.16
3.42
3.61
3.73
3.77
3.73
3.57
3.28
2.81
2.21
1.51
0.79
0.12
-0.46
-0.89
-1.16
-1.30
-1.42
-1.59
-1.93
-2.47
-3.16
-3.92
-4.67
-5.39
-6.09
-6.81
-7.55
-8.28
-8.91
-9.30
-9.36
-9.03
-8.32
-7.33
-6.14
-4.84
-3.50
-2.15
-0.86
0.29
1.21
1.83
2.14
2.23
2.25
2.33
2.48
2.66
2.71
2.61
2.37
2.09
1.89
1.82
1.90
2.09
2.32
2.57
2.77
2.85
2.73
2.38
1.81
1.07
0.28
-0.52
-1.28
-2.01
-2.75
-3.49
-4.19
-4.78
-5.19
-5.36
-5.29
-5.09
-4.89
-4.86
-5.11
-5.60
-6.21
-6.70
-6.86
-6.63
-6.03
-5.19
-4.28
-3.44
-2.74
-2.24
-1.95
-1.82
-1.80
-1.78
-1.68
-1.47
-1.21
-0.96
-0.81
-0.73
-0.67
-0.54
-0.24
0.25
0.90
1.68
2.52
3.34
4.05
4.55
4.76
4.69
4.40
3.97
3.48
2.94
2.32
1.56
0.61
-0.51
-1.75
-3.01
-4.17
-5.10
-5.69
-5.91
-5.82
-5.58
-5.36
-5.33
-5.53
-5.86
-6.10
-6.03
-5.53
-4.62
-3.42
-2.11
-0.83
0.34
1.36
2.19
2.81
3.20
3.41
3.53
3.66
3.89
4.20
4.51
4.72
4.79
4.73
4.67
4.72
4.92
5.26
5.63
5.91
5.98
5.78
5.30
4.53
3.50
2.26
0.88
-0.55
-1.88
-2.99
-3.78
-4.18
-4.26
-4.16
-4.08
-4.22
-4.72
-5.63
-6.86
-8.20
-9.44
-10.35
-10.79
-10.70
-10.11
-9.08
-7.72
-6.14
-4.49
-2.88
-1.42
-0.17
0.86
1.66
2.27
2.67
2.91
3.00
3.01
2.98
2.98
3.02
3.16
3.39
3.73
4.14
4.52
4.80
4.84
4.63
4.18
3.61
3.02
2.50
2.07
1.67
1.25
0.78
0.23
-0.34
-0.92
-1.52
-2.16
-2.86
-3.62
-4.41
-5.19
-5.97
-6.75
-7.58
-8.48
-9.40
-10.24
-10.82
-10.97
-10.57
-9.60
-8.13
-6.30
-4.29
-2.29
-0.48
0.98
2.02
2.64
2.93
3.06
3.19
3.39
3.72
4.11
4.51
4.87
5.17
5.41
5.60
5.73
5.79
5.78
5.72
5.61
5.48
5.32
5.10
4.83
4.50
4.14
3.76
3.35
2.86
2.27
1.53
0.65
-0.35
-1.42
-2.47
-3.48
-4.40
-5.24
-6.00
-6.73
-7.43
-8.15
-8.85
-9.47
-9.89
-9.97
-9.62
-8.81
-7.57
-5.99
-4.22
-2.42
-0.75
0.66
1.75
2.49
2.93
3.11
3.09
2.92
2.70
2.55
2.58
2.85
3.31
3.85
4.34
4.71
4.94
5.07
5.13
5.12
5.03
4.87
4.69
4.54
4.44
4.37
4.24
3.95
3.44
2.74
1.90
1.05
0.25
-0.44
-1.03
-1.57
-2.14
-2.79
-3.54
-4.39
-5.31
-6.31
-7.36
-8.37
-9.18
-9.55
-9.29
-8.34
-6.81
-4.96
-3.10
-1.46
-0.18
0.76
1.40
1.83
2.14
2.42
2.72
3.07
3.41
3.68
3.84
3.94
4.07
4.33
4.77
5.31
5.84
6.25
6.49
6.55
6.47
6.22
5.78
5.13
4.35
3.55
2.82
2.25
1.79
1.39
0.99
0.53
-0.01
-0.64
-1.37
-2.19
-3.09
-4.01
-4.94
-5.85
-6.80
-7.81
-8.90
-10.02
-11.03
-11.79
-12.09
-11.83
-10.96
-9.52
-7.68
-5.60
-3.50
-1.58
0.05
1.34
2.34
3.12
3.79
4.41
4.97
5.38
5.53
5.42
5.14
4.92
4.97
5.38
6.03
6.67
7.08
7.14
6.95
6.71
6.57
6.57
6.58
6.40
5.94
5.26
4.50
3.85
3.32
2.85
2.27
1.51
0.55
-0.45
-1.33
-2.00
-2.46
-2.85
-3.32
-4.03
-5.03
-6.28
-7.70
-9.16
-10.56
-11.79
-12.75
-13.31
-13.35
-12.77
-11.56
-9.87
-7.90
-5.96
-4.23
-2.84
-1.79
-1.02
-0.50
-0.23
-0.24
-0.50
-0.87
-1.12
-1.03
-0.52
0.31
1.16
1.67
1.54
0.74
-0.56
-2.01
-3.29
-4.25
-5.01
-5.89
-7.27
-9.43
-12.32
-15.67
-19.04
-22.04
-24.44
-26.25
-27.67
-28.95
-30.41
-32.40
-35.32
-39.44
-44.76
-50.93
-57.25
-62.98
-67.62
-71.05
-73.48
-75.11
-75.67
-74.23
-69.48
-60.32
-46.66
-29.70
-11.73
4.68
17.64
26.58
32.15
35.62
38.12
40.02
40.93
40.27
37.77
33.77
28.98
24.07
19.48
15.61
13.18
13.25
16.81
23.82
32.51
39.59
41.51
36.30
24.74
10.27
-2.53
-10.02
-10.93
-6.47
0.84
8.74
16.23
23.46
30.85
38.21
44.55
48.51
49.21
46.91
42.81
38.59
35.54
34.04
33.56
32.99
31.28
27.98
23.52
19.07
16.07
15.77
18.71
24.58
32.28
40.44
47.86
53.93
58.69
62.66
66.38
70.22
74.24
78.40
82.68
86.92
90.57
92.37
90.56
83.37
69.77
49.91
24.85
-3.84
-34.59
-65.84
-95.78
-122.09
-142.18
-153.97
-156.78
-151.85
-142.03
-130.74
-120.98
-114.41
-111.06
-109.55
-107.48
-101.98
-90.40
-71.17
-44.66
-13.59
17.34
42.82
58.56
62.69
56.18
42.22
24.85
7.56
-7.50
-19.46
-28.28
-34.14
-37.16
-37.57
-35.90
-33.12
-30.32
-28.26
-27.05
-26.12
-24.67
-21.99
-17.87
-12.70
-7.25
-2.27
1.71
4.56
6.53
8.00
9.36
10.83
12.40
13.87
15.02
15.68
15.87
15.76
15.65
15.80
16.32
17.16
18.05
18.72
18.90
18.49
17.53
16.15
14.55
12.88
11.28
9.83
8.60
7.60
6.78
6.03
5.23
4.34
3.39
2.54
1.91
1.54
1.31
1.02
0.48
-0.39
-1.57
-2.94
-4.38
-5.77
-6.94
-7.74
-8.00
-7.66
-6.84
-5.84
-4.90
-4.06
-2.97
-0.98
2.49
7.63
14.00
20.69
26.64
31.02
33.49
34.17
33.33
31.20
27.85
23.33
17.90
12.15
6.94
3.16
1.58
2.53
5.99
11.57
18.67
26.55
34.50
41.90
48.38
53.84
58.32
61.82
64.12
64.81
63.53
60.37
56.01
51.70
48.74
47.80
48.60
49.84
49.78
46.84
40.20
29.82
16.29
0.45
-16.79
-34.38
-51.06
-65.33
-75.78
-81.41
-82.01
-78.22
-71.29
-62.66
-53.62
-45.12
-37.71
-31.58
-26.60
-22.40
-18.41
-14.01
-8.62
-1.82
6.51
16.19
26.87
38.21
50.06
62.58
76.18
91.17
107.49
124.43
140.78
155.20
166.82
175.58
182.32
188.48
195.44
203.93
213.67
223.33
230.81
233.80
230.36
219.35
200.60
174.97
143.95
109.18
71.52
30.35
-16.67
-73.08
-142.24
-225.36
-319.90
-419.04
-512.66
-589.90
-641.91
-664.01
-656.56
-624.31
-574.52
-514.91
-451.76
-388.92
-327.92
-268.77
-211.11
-155.27
-102.43
-54.05
-11.11
26.58
60.25
91.30
120.23
146.23
167.37
181.85
189.07
189.95
186.50
180.89
174.53
167.71
159.87
150.21
138.40
124.85
110.60
96.95
84.98
75.26
67.69
61.70
56.62
52.05
48.09
45.16
43.83
44.42
46.87
50.71
55.25
59.81
63.83
66.96
68.96
69.76
69.34
67.76
65.10
61.50
57.14
52.31
47.39
42.87
39.18
36.61
35.14
34.45
33.99
33.26
31.96
30.12
28.03
26.09
24.56
23.49
22.72
21.93
20.90
19.56
17.96
16.28
14.64
13.11
11.68
10.34
9.06
7.87
6.76
5.66
4.46
3.01
1.25
-0.77
-2.88
-4.85
-6.45
-7.56
-8.19
-8.39
-8.31
-8.02
-7.56
-6.94
-6.16
-5.25
-4.28
-3.31
-2.37
-1.46
-0.61
0.17
0.79
1.14
1.18
0.94
0.58
0.26
0.13
0.17
0.32
0.43
0.43
0.32
0.17
0.08
0.09
0.15
0.14
-0.01
-0.36
-0.88
-1.49
-2.13
-2.76
-3.41
-4.13
-4.98
-5.94
-6.90
-7.72
-8.23
-8.40
-8.32
-8.17
-8.12
-8.25
-8.47
-8.58
-8.34
-7.67
-6.64
-5.48
-4.41
-3.60
-3.02
-2.57
-2.11
-1.58
-0.99
-0.41
0.08
0.49
0.86
1.20
1.49
1.67
1.70
1.57
1.35
1.17
1.14
1.34
1.74
2.23
2.64
2.81
2.63
2.09
1.29
0.41
-0.38
-1.00
-1.49
-1.96
-2.50
-3.16
-3.89
-4.58
-5.17
-5.62
-5.99
-6.29
-6.51
-6.56
-6.38
-5.92
-5.24
-4.45
-3.64
-2.88
-2.15
-1.41
-0.61
0.25
1.11
1.90
2.59
3.13
3.53
3.77
3.84
3.72
3.46
3.17
2.99
3.02
3.26
3.58
3.80
3.79
3.51
3.07
2.61
2.25
2.01
1.85
1.65
1.32
0.81
0.14
-0.62
-1.40
-2.15
-2.86
-3.59
-4.42
-5.41
-6.55
-7.76
-8.86
-9.66
-9.99
-9.79
-9.08
-8.00
-6.73
-5.48
-4.37
-3.49
-2.83
-2.34
-1.94
-1.59
-1.27
-0.98
-0.75
-0.60
-0.54
-0.53
-0.56
-0.58
-0.55
-0.46
-0.31
-0.13
0.03
0.15
0.26
0.44
0.74
1.22
1.91
2.83
4.01
5.38
6.82
8.03
8.71
8.57
7.57
5.92
4.03
2.35
1.17
0.56
0.31
0.18
-0.03
-0.36
-0.70
-0.90
-0.85
-0.53
0.02
0.77
1.70
2.78
3.87
4.74
5.11
4.77
3.77
2.38
0.95
-0.20
-1.00
-1.61
-2.26
-3.10
-4.08
-4.94
-5.45
-5.50
-5.18
-4.70
-4.21
-3.71
-3.10
-2.26
-1.22
-0.16
0.63
0.91
0.58
-0.27
-1.43
-2.68
-3.84
-4.84
-5.68
-6.42
-7.11
-7.84
-8.68
-9.72
-10.93
-12.24
-13.48
-14.44
-15.00
-15.15
-15.03
-14.83
-14.80
-15.06
-15.64
-16.42
-17.24
-17.89
-18.27
-18.37
-18.28
-18.13
-18.05
-18.12
-18.35
-18.63
-18.73
-18.28
-16.80
-13.77
-8.84
-1.99
6.41
15.59
24.68
32.94
40.03
46.01
51.23
56.00
60.41
64.27
67.13
68.52
68.20
66.22
62.90
58.69
53.99
49.03
43.94
38.78
33.69
28.92
24.74
21.36
18.84
17.05
15.83
15.09
14.84
15.13
15.83
16.55
16.69
15.61
12.98
8.88
3.87
-1.33
-6.04
-9.88
-12.75
-14.78
-16.11
-16.87
-17.20
-17.29
-17.40
-17.77
-18.55
-19.65
-20.79
-21.61
-21.80
-21.27
-20.16
-18.80
-17.53
-16.60
-16.10
-15.97
-16.05
-16.17
-16.19
-16.03
-15.71
-15.33
-15.10
-15.29
-16.17
-17.85
-20.25
-23.13
-26.19
-29.20
-32.09
-34.85
-37.51
-40.04
-42.35
-44.38
-46.15
-47.82
-49.61
-51.80
-54.54
-57.84
-61.48
-64.96
-67.57
-68.44
-66.82
-62.27
-54.83
-44.97
-33.43
-21.12
-8.96
2.10
11.08
17.14
19.79
19.11
15.80
11.02
6.00
1.70
-1.42
-3.30
-4.09
-3.91
-2.82
-0.88
1.70
4.55
7.11
8.87
9.46
8.79
7.00
4.42
1.48
-1.42
-3.89
-5.65
-6.53
-6.56
-5.95
-5.08
-4.37
-4.15
-4.61
-5.73
-7.33
-9.16
-10.97
-12.56
-13.80
-14.63
-15.06
-15.15
-14.96
-14.55
-14.00
-13.39
-12.79
-12.24
-11.68
-11.06
-10.28
-9.28
-8.08
-6.85
-5.77
-5.06
-4.84
-5.08
-5.64
-6.26
-6.70
-6.81
-6.59
-6.17
-5.74
-5.42
-5.27
-5.26
-5.29
-5.26
-5.05
-4.53
-3.57
-2.09
-0.11
2.21
4.62
6.88
8.88
10.59
12.11
13.50
14.66
15.47
15.79
15.65
15.26
14.92
14.91
15.35
16.14
17.07
17.91
18.54
18.92
19.15
19.30
19.36
19.28
18.96
18.34
17.44
16.36
15.23
14.13
13.04
11.85
10.40
8.57
6.38
4.01
1.75
-0.14
-1.55
-2.55
-3.29
-3.90
-4.40
-4.60
-4.28
-3.30
-1.67
0.36
2.48
4.45
6.21
7.82
9.45
11.23
13.14
15.09
16.96
18.70
20.42
22.29
24.54
27.23
30.28
33.34
36.01
37.94
39.02
39.32
39.03
38.27
37.04
35.30
32.98
30.15
26.98
23.54
19.77
15.41
10.24
4.20
-2.44
-9.20
-15.61
-21.49
-26.98
-32.41
-38.00
-43.68
-49.05
-53.59
-56.90
-58.88
-59.68
-59.65
-59.04
-57.97
-56.46
-54.48
-52.07
-49.34
-46.42
-43.37
-40.18
-36.74
-32.91
-28.68
-24.16
-19.62
-15.37
-11.70
-8.70
-6.26
-4.09
-1.90
0.53
3.23
5.99
8.50
10.43
11.61
12.05
11.89
11.36
10.64
9.85
9.06
8.32
7.67
7.15
6.71
6.23
5.57
4.60
3.34
1.98
0.80
0.11
0.06
0.62
1.64
2.94
4.36
5.81
7.25
8.60
9.78
10.67
11.24
11.51
11.53
11.39
11.09
10.62
10.02
9.34
8.72
8.26
8.03
7.98
7.99
7.92
7.68
7.27
6.75
6.20
5.66
5.12
4.54
3.87
3.10
2.27
1.43
0.62
-0.15
-0.89
-1.61
-2.33
-3.07
-3.84
-4.68
-5.58
-6.52
-7.33
-7.78
-7.61
-6.69
-5.11
-3.12
-1.03
0.94
2.73
4.36
5.85
7.14
8.09
8.56
8.56
8.26
7.87
7.59
7.47
7.46
7.47
7.48
7.51
7.59
7.75
7.93
8.03
7.97
7.72
7.25
6.61
5.85
5.06
4.30
3.61
3.03
2.48
1.90
1.19
0.30
-0.80
-2.09
-3.52
-5.00
-6.41
-7.58
-8.30
-8.41
-7.85
-6.65
-4.99
-3.10
-1.22
0.50
1.98
3.21
4.24
5.13
5.88
6.46
6.81
6.88
6.74
6.48
6.25
6.23
6.47
6.90
7.36
7.66
7.70
7.48
7.09
6.66
6.27
5.95
5.67
5.36
4.98
4.44
3.70
2.73
1.56
0.27
-1.00
-2.12
-3.04
-3.83
-4.60
-5.46
-6.43
-7.34
-7.94
-7.97
-7.25
-5.71
-3.51
-0.88
1.86
4.43
6.64
8.44
9.93
11.32
12.82
14.53
16.39
18.22
19.75
20.81
21.46
21.91
22.48
23.45
24.90
26.74
28.69
30.32
31.03
30.16
27.09
21.49
13.60
4.31
-5.00
-12.88
-18.30
-20.95
-21.22
-19.98
-18.20
-16.60
-15.64
-15.50
-16.23
-17.82
-20.14
-22.94
-25.82
-28.27
-29.86
-30.34
-29.68
-28.12
-25.98
-23.62
-21.29
-19.09
-17.03
-15.04
-13.07
-11.11
-9.23
-7.53
-6.04
-4.76
-3.62
-2.51
-1.31
0.01
1.41
2.77
3.98
5.00
5.90
6.76
7.70
8.72
9.71
10.51
10.99
11.11
10.92
10.56
10.14
9.75
9.39
9.01
8.51
7.84
6.94
5.81
4.54
3.20
1.87
0.56
-0.81
-2.30
-3.91
-5.51
-6.86
-7.65
-7.67
-6.87
-5.36
-3.34
-1.13
0.99
2.75
3.95
4.50
4.50
4.22
4.03
4.23
4.90
5.91
6.99
7.89
8.51
8.90
9.21
9.57
10.01
10.43
10.72
10.78
10.61
10.28
9.86
9.43
8.99
8.51
7.91
7.17
6.27
5.28
4.30
3.36
2.49
1.68
0.89
0.11
-0.68
-1.48
-2.30
-3.18
-4.11
-5.10
-6.09
-6.98
-7.63
-7.90
-7.66
-6.86
-5.51
-3.72
-1.69
0.36
2.27
3.92
5.26
6.31
7.08
7.62
7.98
8.22
8.41
8.58
8.70
8.74
