1608268203.00
64.000000
-0.00
-0.00
-0.00
-0.00
-0.00
-0.00
-0.00
-0.00
-0.00
-0.00
0.00
0.01
0.01
-0.00
-0.03
-0.05
-0.05
0.00
0.13
0.36
0.66
1.01
1.37
1.72
2.06
2.40
2.79
3.24
3.80
4.42
5.06
5.66
6.20
6.68
7.15
7.68
8.31
9.14
10.09
11.04
11.88
12.56
13.14
13.76
14.65
15.96
17.91
20.32
22.90
25.38
27.58
29.57
31.68
34.32
37.81
42.54
48.15
54.10
59.83
64.97
69.58
74.14
79.34
85.71
93.76
103.00
112.62
121.73
129.77
136.75
143.30
150.75
157.77
166.64
177.95
191.79
206.97
220.57
228.25
225.36
208.53
176.87
132.76
80.05
23.07
-34.94
-92.44
-149.16
-205.23
-260.37
-313.74
-363.87
-409.83
-450.91
-486.50
-515.74
-537.23
-549.22
-549.96
-538.37
-514.21
-478.67
-433.88
-382.45
-327.02
-269.84
-212.63
-156.66
-102.95
-52.37
-5.90
35.58
71.43
101.35
125.50
144.38
158.69
169.15
176.37
180.75
182.57
182.07
179.51
175.23
169.65
163.18
156.15
148.81
141.30
133.69
126.02
118.33
110.69
103.16
95.80
88.68
81.83
75.25
68.95
62.95
57.25
51.86
46.78
42.03
37.59
33.45
29.61
26.07
22.81
19.83
17.11
14.67
12.48
10.54
8.83
7.35
6.07
4.97
4.05
3.27
2.62
2.09
1.65
1.30
1.01
0.79
0.61
0.47
0.37
0.29
0.23
0.18
0.16
0.14
0.13
0.14
0.15
0.17
0.20
0.23
0.27
0.31
0.35
0.39
0.44
0.49
0.53
0.58
0.64
0.69
0.75
0.81
0.88
0.95
1.04
1.13
1.23
1.34
1.47
1.62
1.78
1.96
2.16
2.39
2.63
2.91
3.21
3.54
3.90
4.30
4.73
5.19
5.70
6.24
6.82
7.44
8.10
8.81
9.56
10.36
11.20
12.08
13.01
14.00
15.05
16.15
17.33
18.55
19.82
21.09
22.30
23.37
24.22
24.71
24.71
24.13
22.86
20.86
18.13
14.72
10.72
6.31
1.67
-2.98
-7.40
-11.40
-14.81
-17.50
-19.41
-20.51
-20.83
-20.48
-19.56
-18.21
-16.56
-14.70
-12.74
-10.73
-8.70
-6.66
-4.68
-2.81
-1.07
0.56
2.12
3.66
5.28
7.05
9.10
11.31
13.64
16.06
18.57
21.18
23.98
27.03
30.45
34.35
38.46
42.59
46.62
50.49
54.23
57.96
61.87
66.14
70.95
75.86
80.52
84.68
88.23
91.30
94.16
97.19
100.72
104.97
109.19
112.65
114.70
114.85
112.83
108.47
101.38
90.34
78.25
65.40
51.47
36.08
19.03
0.65
-18.34
-37.05
-54.72
-70.90
-86.34
-101.89
-118.61
-137.63
-159.90
-185.75
-214.20
-242.56
-266.64
-282.33
-286.33
-277.54
-257.55
-230.07
-199.56
-169.82
-143.14
-120.20
-101.04
-85.34
-72.82
-63.31
-56.40
-51.30
-46.89
-42.05
-36.02
-28.96
-21.70
-15.38
-10.98
-8.84
-8.46
-8.76
-8.56
-7.14
-4.54
-1.43
1.41
3.55
5.11
6.60
8.47
10.78
13.05
14.51
14.64
13.47
11.65
10.13
9.74
10.81
13.19
16.54
20.61
25.37
30.83
36.78
42.60
47.35
50.16
50.62
49.06
46.32
43.45
41.16
39.55
38.24
36.65
34.40
31.59
28.69
26.33
24.91
24.38
24.22
23.65
21.93
18.65
13.91
8.19
2.27
-3.13
-7.48
-10.69
-13.10
-15.31
-18.01
-21.64
-26.36
-31.93
-37.70
-42.63
-45.41
-44.70
-39.53
-29.72
-16.13
-0.55
14.73
27.64
36.91
42.30
44.45
44.30
42.71
40.19
37.02
33.44
29.77
26.39
23.54
21.24
19.34
17.55
15.72
13.92
12.40
11.43
11.00
10.74
9.96
8.00
4.47
-0.43
-6.01
-11.31
-15.51
-18.24
-19.76
-20.88
-22.62
-25.88
-31.00
-37.53
-44.17
-48.91
-49.66
-44.84
-34.09
-18.47
-0.20
18.08
34.14
46.70
55.55
61.13
64.11
64.93
63.76
60.72
56.10
50.48
44.58
39.13
34.54
31.00
28.49
26.94
26.41
26.98
28.74
31.49
34.67
37.34
38.39
36.96
32.74
26.07
17.78
8.78
-0.39
-9.69
-19.58
-30.64
-43.19
-56.98
-71.08
-83.88
-93.39
-97.54
-94.77
-84.57
-67.90
-47.09
-25.31
-5.64
9.85
20.62
27.49
31.98
35.44
38.50
40.98
42.24
41.68
39.19
35.17
30.39
25.66
21.62
18.60
16.71
15.85
15.81
16.24
16.73
16.87
16.37
15.17
13.34
11.05
8.37
5.31
1.83
-2.04
-6.04
-9.91
-13.40
-16.54
-19.64
-23.30
-28.12
-34.59
-42.97
-53.27
-65.24
-78.29
-91.20
-102.03
-108.20
-107.00
-96.51
-76.56
-49.09
-17.84
12.75
38.93
58.66
71.81
79.61
83.67
85.15
84.56
81.98
77.57
71.87
65.75
60.10
55.41
51.67
48.50
45.40
42.12
38.71
35.48
32.66
30.24
27.85
24.98
21.22
16.54
11.32
6.17
1.59
-2.30
-5.85
-9.64
-14.14
-19.44
-25.19
-30.74
-35.49
-39.13
-41.78
-43.90
-46.18
-49.31
-53.83
-59.95
-67.37
-75.05
-81.29
-83.96
-81.14
-71.83
-56.46
-36.93
-16.04
3.30
18.90
29.81
36.13
38.65
38.26
35.65
31.44
26.32
21.22
17.10
14.46
12.96
11.30
7.71
0.85
-9.27
-21.09
-31.90
-39.08
-41.26
-38.96
-34.23
-29.63
-27.08
-27.09
-28.89
-31.03
-32.38
-32.71
-32.79
-33.91
-37.27
-43.66
-53.16
-65.19
-78.49
-91.17
-100.85
-105.11
-102.12
-91.27
-73.54
-51.26
-27.33
-4.34
16.13
33.58
48.04
59.30
66.46
68.03
62.77
50.58
33.10
13.52
-4.24
-16.75
-22.19
-20.70
-14.05
-4.83
4.47
11.98
16.60
17.83
15.53
9.89
1.38
-9.19
-20.78
-32.29
-42.84
-51.87
-59.26
-65.25
-70.34
-75.10
-80.03
-85.44
-91.48
-98.16
-105.50
-113.55
-122.21
-130.96
-138.55
-143.10
-142.50
-135.19
-120.86
-100.69
-76.99
-52.39
-28.96
-7.72
11.30
28.46
43.98
57.60
68.71
76.84
81.99
84.75
86.05
86.68
87.03
87.10
86.77
86.10
85.42
85.16
85.53
86.31
86.80
86.18
83.91
79.91
74.58
68.52
62.22
55.86
49.40
42.64
35.43
27.81
19.91
11.99
4.31
-2.94
-9.69
-16.09
-22.58
-29.84
-38.69
-49.68
-62.73
-76.77
-89.68
-98.68
-101.01
-94.78
-79.64
-57.11
-30.14
-2.32
23.16
44.25
60.28
71.65
79.29
84.07
86.52
86.98
85.77
83.44
80.68
78.18
76.37
75.25
74.46
73.50
72.00
69.81
67.14
64.35
61.77
59.48
57.16
54.17
49.86
43.76
35.89
26.80
17.31
8.26
0.19
-6.79
-12.92
-18.65
-24.55
-31.16
-38.98
-48.30
-59.06
-70.50
-81.08
-88.73
-91.35
-87.48
-76.69
-59.87
-38.83
-15.93
6.59
26.92
43.95
57.17
66.55
72.38
75.13
75.30
73.50
70.38
66.59
62.74
59.29
56.47
54.21
52.34
50.62
48.99
47.49
46.17
44.85
43.10
40.27
35.75
29.34
21.33
12.43
3.55
-4.61
-11.78
-18.30
-24.88
-32.40
-41.57
-52.47
-64.35
-75.49
-83.52
-86.03
-81.41
-69.55
-51.88
-31.01
-9.79
9.53
25.78
38.81
49.07
57.09
63.12
67.16
69.14
69.21
67.79
65.55
63.14
61.02
59.26
57.66
55.85
53.61
51.03
48.39
46.08
44.25
42.68
40.83
37.99
33.67
27.72
20.41
12.38
4.35
-3.09
-9.63
-15.38
-20.81
-26.69
-33.82
-42.84
-53.84
-66.15
-78.15
-87.46
-91.43
-88.06
-76.72
-58.59
-36.30
-13.13
8.03
25.50
38.91
48.84
56.07
61.10
64.01
64.79
63.63
61.18
58.31
55.83
54.10
52.96
51.88
50.29
47.92
44.90
41.73
39.02
37.12
35.90
34.77
32.88
29.48
24.25
17.45
9.79
2.15
-4.81
-10.87
-16.28
-21.57
-27.37
-34.22
-42.35
-51.57
-61.13
-69.66
-75.44
-76.83
-72.90
-63.74
-50.58
-35.33
-19.91
-5.78
6.33
16.26
24.11
29.95
33.78
35.62
35.64
34.21
31.83
29.07
26.38
24.09
22.34
21.11
20.29
19.71
19.19
18.53
17.50
15.88
13.46
10.13
5.96
1.15
-3.98
-9.18
-14.35
-19.63
-25.38
-31.99
-39.67
-48.16
-56.56
-63.41
-67.00
-65.97
-59.71
-48.68
-34.22
-18.11
-2.11
12.48
24.81
34.49
41.39
45.57
47.31
47.07
45.49
43.20
40.75
38.48
36.49
34.73
33.03
31.27
29.38
27.34
25.21
22.94
20.41
17.41
13.70
9.14
3.85
-1.89
-7.65
-13.13
-18.22
-23.09
-28.12
-33.84
-40.73
-48.97
-58.19
-67.29
-74.48
-77.76
-75.58
-67.37
-53.94
-37.20
-19.52
-3.03
11.02
22.24
30.98
37.69
42.73
46.12
47.82
47.89
46.68
44.81
42.90
41.36
40.23
39.21
37.84
35.82
33.20
30.34
27.79
25.94
24.84
24.04
22.81
20.41
16.38
10.75
4.03
-2.94
-9.34
-14.70
-19.01
-22.74
-26.53
-31.03
-36.72
-43.76
-51.95
-60.62
-68.55
-74.11
-75.61
-71.75
-62.20
-47.81
-30.44
-12.41
4.18
17.96
28.45
35.82
40.58
43.26
44.31
44.07
42.96
41.45
40.00
38.92
38.24
37.74
37.02
35.81
34.06
32.01
30.00
28.26
26.75
25.22
23.35
20.99
18.17
15.09
11.89
8.58
4.97
0.83
-3.96
-9.21
-14.55
-19.47
-23.58
-26.77
-29.30
-31.72
-34.79
-39.23
-45.39
-53.05
-61.28
-68.57
-73.17
-73.60
-69.10
-59.94
-47.32
-33.02
-18.86
-6.15
4.46
12.92
19.49
24.38
27.61
29.09
28.82
27.16
24.78
22.48
20.82
19.95
19.53
19.09
18.29
17.12
15.91
15.00
14.48
14.07
13.18
11.26
8.04
3.69
-1.22
-6.03
-10.24
-13.71
-16.68
-19.62
-23.05
-27.33
-32.66
-38.95
-45.83
-52.54
-57.95
-60.73
-59.69
-54.22
-44.59
-31.92
-17.89
-4.16
8.02
18.05
25.85
31.62
35.54
37.80
38.52
37.96
36.52
34.68
32.85
31.26
29.97
28.87
27.86
26.85
25.78
24.55
23.08
21.25
19.06
16.61
14.09
11.66
9.35
7.00
4.34
1.10
-2.85
-7.43
-12.43
-17.58
-22.65
-27.45
-31.84
-35.78
-39.28
-42.57
-46.07
-50.28
-55.52
-61.61
-67.70
-72.29
-73.69
-70.58
-62.55
-50.26
-35.28
-19.55
-4.80
7.81
17.80
25.19
30.31
33.57
35.38
36.17
36.34
36.25
36.12
35.99
35.76
35.26
34.38
33.16
31.72
30.27
28.94
27.79
26.75
25.67
24.38
22.69
20.49
17.73
14.46
10.77
6.78
2.60
-1.71
-6.10
-10.50
-14.81
-18.91
-22.73
-26.29
-29.73
-33.27
-37.18
-41.75
-47.17
-53.33
-59.71
-65.27
-68.58
-68.28
-63.52
-54.36
-41.79
-27.45
-13.06
-0.01
10.88
19.32
25.35
29.19
31.10
31.48
30.75
29.42
27.92
26.54
25.35
24.29
23.22
22.01
20.65
19.21
17.88
16.80
16.07
15.58
15.05
14.10
12.34
9.52
5.63
0.94
-4.08
-8.90
-13.16
-16.69
-19.60
-22.16
-24.71
-27.60
-31.12
-35.43
-40.51
-46.08
-51.46
-55.66
-57.47
-55.91
-50.55
-41.73
-30.54
-18.40
-6.70
3.59
12.02
18.55
23.39
26.69
28.53
28.99
28.24
26.63
24.68
22.88
21.55
20.71
20.17
19.59
18.77
17.75
16.69
15.81
15.10
14.30
12.91
10.54
7.03
2.59
-2.30
-7.15
-11.57
-15.43
-18.87
-22.20
-25.75
-29.92
-34.93
-40.83
-47.31
-53.61
-58.55
-60.78
-59.17
-53.24
-43.39
-30.85
-17.33
-4.44
6.75
15.84
22.93
28.29
32.06
34.21
34.72
33.77
31.83
29.56
27.55
26.06
25.07
24.33
23.60
22.74
21.75
20.69
19.62
18.55
17.48
16.36
15.05
13.29
10.75
7.18
2.57
-2.70
-8.03
-12.81
-16.73
-19.92
-22.87
-26.15
-30.22
-35.23
-41.00
-47.06
-52.69
-56.93
-58.74
-57.18
-51.73
-42.52
-30.49
-17.08
-3.85
7.94
17.60
24.98
30.25
33.67
35.43
35.70
34.72
32.89
30.72
28.75
27.30
26.39
25.77
25.08
24.04
22.62
21.03
19.59
18.53
17.82
17.14
16.00
13.94
10.72
6.42
1.40
-3.81
-8.74
-13.05
-16.71
-19.93
-23.18
-27.03
-31.95
-38.01
-44.80
-51.36
-56.44
-58.77
-57.48
-52.35
-43.82
-32.90
-20.85
-8.99
1.63
10.28
16.66
20.89
23.35
24.58
25.04
25.02
24.61
23.72
22.28
20.35
18.19
16.13
14.52
13.54
13.12
13.02
12.87
12.34
11.19
9.34
6.79
3.65
0.08
-3.73
-7.60
-11.45
-15.32
-19.45
-24.12
-29.53
-35.55
-41.59
-46.56
-49.14
-48.14
-42.89
-33.61
-21.37
-7.83
5.23
16.38
24.85
30.48
33.62
34.76
34.45
33.15
31.28
29.19
27.17
25.41
23.92
22.58
21.22
19.73
18.09
16.47
15.09
14.05
13.24
12.32
10.83
8.34
4.67
-0.01
-5.26
-10.50
-15.25
-19.31
-22.81
-26.16
-29.92
-34.62
-40.43
-47.04
-53.46
-58.25
-59.85
-57.10
-49.72
-38.46
-24.90
-10.91
1.91
12.59
20.94
27.25
31.91
35.20
37.15
37.68
36.84
34.96
32.66
30.57
29.15
28.49
28.27
28.06
27.49
26.44
25.04
23.51
22.03
20.63
19.15
17.36
15.01
11.90
7.97
3.34
-1.69
-6.75
-11.40
-15.43
-18.83
-21.86
-24.91
-28.36
-32.52
-37.52
-43.23
-49.14
-54.27
-57.31
-56.94
-52.32
-43.48
-31.36
-17.57
-3.81
8.57
18.82
26.73
32.35
35.81
37.26
36.97
35.34
32.97
30.47
28.39
27.01
26.35
26.19
26.18
25.96
25.28
24.11
22.60
20.96
19.41
17.98
16.53
14.74
12.29
8.98
4.92
0.45
-3.99
-7.99
-11.39
-14.28
-17.01
-20.01
-23.66
-28.17
-33.53
-39.50
-45.52
-50.77
-54.20
-54.84
-51.96
-45.45
-35.85
-24.23
-11.94
-0.20
10.05
18.31
24.45
28.57
30.89
31.73
31.43
30.40
29.00
27.54
26.23
25.10
24.11
23.14
22.08
20.89
19.60
18.28
16.96
15.59
14.00
11.92
9.12
5.50
1.18
-3.51
-8.13
-12.27
-15.71
-18.47
-20.84
-23.27
-26.29
-30.29
-35.42
-41.46
-47.65
-52.82
-55.56
-54.65
-49.44
-40.17
-27.97
-14.59
-1.79
9.08
17.39
23.26
27.24
29.96
31.81
32.95
33.32
32.89
31.76
30.16
28.42
26.79
25.39
24.20
23.04
21.75
20.20
18.35
16.23
13.88
11.28
8.33
4.97
1.29
-2.51
-6.13
-9.31
-12.02
-14.46
-16.94
-19.69
-22.72
-25.75
-28.42
-30.50
-32.03
-33.33
-34.88
-37.08
-40.06
-43.54
-46.80
-48.81
-48.43
-44.75
-37.50
-27.11
-14.80
-2.18
9.14
18.07
24.18
27.82
29.71
30.68
31.38
32.11
32.97
33.87
34.68
35.24
35.39
35.00
33.99
32.37
30.34
28.14
26.08
24.32
22.86
21.52
20.08
18.35
16.29
13.95
11.45
8.91
6.37
3.77
0.98
-2.16
-5.73
-9.68
-13.85
-17.97
-21.84
-25.36
-28.67
-32.10
-36.01
-40.58
-45.51
-49.98
-52.80
-52.77
-49.06
-41.59
-31.03
-18.61
-5.80
6.03
15.89
23.25
28.03
30.51
31.19
30.69
29.55
28.18
26.82
25.57
24.56
23.86
23.47
23.25
22.87
21.97
20.38
18.24
16.01
14.22
13.17
12.72
12.32
11.30
9.15
5.84
1.78
-2.42
-6.28
-9.60
-12.50
-15.25
-18.13
-21.39
-25.19
-29.67
-34.89
-40.67
-46.46
-51.32
-54.08
-53.74
-49.78
-42.42
-32.57
-21.50
-10.50
-0.57
7.74
14.28
19.14
22.51
24.63
25.76
26.17
26.16
25.99
25.81
25.59
25.25
24.70
23.89
22.93
22.00
21.30
20.96
20.89
20.72
19.96
18.09
14.80
10.09
4.31
-1.99
-8.24
-14.04
-19.27
-23.99
-28.42
-32.79
-37.29
-42.08
-47.09
-51.95
-55.87
-57.76
-56.55
-51.67
-43.29
-32.37
-20.27
-8.31
2.70
12.53
21.34
29.33
36.39
42.09
45.83
47.23
46.38
43.94
40.97
38.62
37.75
38.70
41.13
44.23
47.00
48.60
48.60
47.03
44.33
41.11
38.01
35.58
34.22
34.03
34.75
35.84
36.61
36.40
34.92
32.28
29.00
25.77
23.14
21.31
20.13
19.19
18.09
16.72
15.32
14.48
14.88
17.01
20.91
26.11
31.69
36.51
39.50
39.81
36.92
30.75
21.56
9.98
-3.11
-16.84
-30.44
-43.37
-55.28
-65.90
-74.99
-82.38
-88.01
-92.00
-94.63
-96.22
-97.05
-97.27
-96.94
-96.08
-94.78
-93.10
-91.08
-88.68
-85.74
-82.16
-77.97
-73.34
-68.57
-63.93
-59.58
-55.57
-51.88
-48.46
-45.33
-42.60
-40.37
-38.70
-37.52
-36.47
-34.91
-31.93
-26.58
-18.16
-6.55
7.66
23.30
39.02
53.66
66.59
77.64
86.95
94.64
100.71
105.06
107.59
108.24
106.91
103.31
96.98
87.36
74.24
58.01
39.93
21.77
5.34
-8.12
-18.27
-25.63
-31.13
-35.74
-40.19
-44.98
-50.46
-56.90
-64.26
-71.96
-78.85
-83.36
-83.98
-79.85
-71.03
-58.50
-43.86
-28.91
-15.31
-4.25
3.66
8.53
11.19
12.98
15.51
20.32
28.48
40.38
55.59
73.00
91.00
107.85
121.95
132.13
137.91
139.49
137.66
133.55
128.45
123.41
119.16
115.98
113.75
112.05
110.39
108.32
105.53
101.95
97.61
92.64
87.14
81.29
75.30
69.36
63.62
57.97
52.03
45.19
36.77
26.32
13.85
-0.08
-14.60
-28.73
-41.76
-53.29
-63.26
-71.68
-78.57
-83.75
-86.88
-87.63
-85.77
-81.31
-74.44
-65.52
-55.03
-43.59
-32.04
-21.33
-12.30
-5.45
-0.79
2.21
4.38
6.59
9.51
13.41
18.25
23.66
29.26
34.65
39.65
44.21
48.46
52.56
56.63
60.65
64.38
67.59
70.06
71.72
72.54
72.53
71.58
69.51
66.23
61.69
55.97
49.14
41.11
31.54
20.03
6.28
-9.52
-26.54
-43.60
-59.51
-73.75
-86.53
-98.66
-110.91
-123.41
-135.60
-146.46
-155.19
-161.62
-166.27
-169.86
-172.70
-174.40
-174.01
-170.62
-163.90
-154.40
-143.26
-131.65
-120.23
-108.96
-97.32
-84.75
-71.15
-56.97
-43.11
-30.52
-19.84
-11.20
-4.40
1.00
5.34
8.85
11.66
13.94
15.88
17.75
19.70
21.68
23.39
24.34
23.97
21.88
17.91
12.23
5.36
-2.01
-9.16
-15.55
-20.91
-25.33
-29.03
-32.27
-35.14
-37.49
-39.01
-39.34
-38.31
-35.92
-32.49
-28.45
-24.28
-20.45
-17.19
-14.62
-12.66
-11.24
-10.31
-9.93
-10.20
-11.11
-12.48
-13.90
-14.98
-15.45
-15.35
-14.98
-14.71
-14.79
-15.32
-16.19
-17.26
-18.40
-19.54
-20.68
-21.89
-23.34
-25.27
-27.94
-31.46
-35.70
-40.15
-44.04
-46.40
-46.41
-43.61
-37.98
-30.03
-20.57
-10.45
-0.42
9.01
17.56
24.96
31.01
35.49
38.29
39.50
39.49
38.65
37.24
35.32
32.76
29.49
25.56
21.23
16.88
12.84
9.35
6.43
4.02
1.92
-0.09
-2.23
-4.69
-7.60
-10.94
-14.56
-18.08
-21.01
-22.97
-23.73
-23.44
-22.58
-21.87
-22.06
-23.59
-26.41
-29.88
-32.95
-34.50
-33.54
-29.56
-22.55
-13.08
-2.16
8.93
18.88
26.77
32.15
35.12
36.12
35.69
34.23
31.88
28.61
24.38
19.35
14.00
8.99
5.09
2.98
3.08
5.52
9.96
15.53
20.89
24.41
24.53
20.23
11.32
-1.29
-15.87
-30.11
-41.90
-49.66
-52.76
-51.52
-46.99
-40.54
-33.47
-26.59
-19.96
-12.95
-4.52
6.26
19.79
35.68
52.90
70.14
86.19
100.33
112.21
121.69
128.61
132.64
133.42
130.84
125.30
117.86
109.99
103.19
98.49
96.15
95.55
95.55
94.93
92.84
89.03
83.59
76.75
68.54
58.81
47.46
34.70
21.20
7.97
-4.00
-14.11
-22.32
-29.19
-35.54
-42.26
-49.97
-59.00
-69.27
-80.32
-91.35
-101.22
-108.68
-112.64
-112.35
-107.79
-99.57
-88.90
-77.28
-66.06
-56.12
-47.75
-40.85
-35.12
-30.49
-27.10
-25.14
-24.56
-24.87
-25.17
-24.59
-22.68
-19.74
-16.59
-14.14
-12.86
-12.57
-12.60
-12.32
-11.48
-10.41
-9.68
-9.86
-11.19
-13.49
-16.41
-19.55
-22.71
-25.87
-29.08
-32.37
-35.76
-39.33
-43.34
-48.18
-54.07
-60.83
-67.72
-73.43
-76.45
-75.56
-70.12
-60.38
-47.24
-31.99
-15.93
-0.21
14.15
26.22
35.17
40.45
42.10
40.73
37.48
33.65
30.26
27.84
26.31
25.34
24.61
24.07
24.03
24.84
26.70
29.39
32.41
35.09
36.93
37.67
37.36
36.24
34.66
32.91
31.15
29.34
27.20
24.27
20.13
14.59
7.98
1.24
-4.26
-7.16
-6.54
-2.29
4.95
14.10
24.00
33.76
42.76
50.62
57.02
61.70
64.47
65.41
64.90
63.52
61.80
60.07
58.37
56.55
54.46
52.11
49.70
47.43
45.42
43.63
41.83
39.63
36.65
32.52
27.07
20.32
12.57
4.41
-3.45
-10.38
-16.10
-20.81
-25.19
-30.07
-36.04
-43.14
-50.65
-57.29
-61.57
-62.28
-58.82
-51.41
-40.95
-28.78
-16.35
-4.91
4.66
11.89
16.66
19.07
19.38
18.00
15.42
12.26
9.18
6.77
5.45
5.42
6.67
9.03
12.20
15.75
19.09
21.50
22.32
20.98
17.25
11.30
3.73
-4.50
-12.23
-18.38
-22.21
-23.53
-22.75
-20.83
-18.97
-18.21
-19.19
-22.00
-26.28
-31.34
-36.27
-40.08
-41.71
-40.26
-35.20
-26.58
-15.14
-2.11
11.06
23.13
33.30
41.34
47.48
52.12
55.64
58.27
60.13
61.28
61.86
62.01
61.82
61.29
60.27
58.54
55.92
52.36
48.05
43.31
38.46
33.72
29.15
24.57
19.80
14.62
9.06
3.35
-2.08
-6.77
-10.42
-13.07
-15.12
-17.19
-19.83
-23.38
-27.86
-33.06
-38.51
-43.58
-47.47
-49.34
-48.45
-44.41
-37.38
-28.05
-17.44
-6.69
3.28
11.83
18.58
23.31
25.93
26.59
25.70
23.95
22.13
20.93
20.67
21.32
22.45
23.53
24.13
24.03
23.28
22.07
20.66
19.13
17.45
15.47
13.03
10.06
6.70
3.21
-0.06
-2.78
-4.85
-6.38
-7.64
-8.99
-10.78
-13.28
-16.68
-20.97
-25.90
-30.88
-35.03
-37.33
-36.91
-33.36
-26.93
-18.48
-9.12
0.07
8.38
15.48
21.32
25.87
29.04
30.76
30.99
29.89
27.81
25.21
22.53
20.06
17.90
16.03
14.36
12.90
11.72
10.96
10.67
10.65
10.56
9.82
8.00
4.97
1.09
-2.87
-6.02
-7.79
-8.20
-7.93
-8.10
-9.87
-14.12
-21.08
-30.22
-40.21
-49.14
-54.86
-55.60
-50.60
-40.57
-27.64
-14.86
-5.12
-0.09
0.35
-2.03
-4.60
-4.85
-1.33
6.15
16.54
28.10
38.91
47.42
52.59
54.07
52.04
47.05
39.88
31.50
23.02
15.69
10.67
8.71
9.71
12.45
14.74
13.98
8.04
-3.96
-21.25
-41.71
-62.44
-80.68
-94.47
-103.07
-106.99
-107.61
-106.75
-105.94
-105.91
-106.26
-105.65
-102.33
-94.98
-83.41
-68.76
-53.12
-38.63
-26.63
-17.33
-10.12
-4.32
0.23
3.00
3.25
0.64
-4.15
-9.47
-13.12
-13.11
-8.30
1.34
14.81
30.45
46.47
61.35
74.17
84.60
92.75
98.93
103.44
106.55
108.56
109.84
110.82
111.75
112.40
112.11
109.86
104.83
96.81
86.40
74.85
63.49
53.10
43.55
33.90
22.94
9.98
-4.59
-19.33
-32.26
-41.77
-47.32
-49.56
-49.88
-49.62
-49.37
-48.84
-47.03
-42.81
-35.61
-25.85
-15.07
-5.54
0.53
1.76
-1.72
-8.30
-15.47
-20.90
-23.24
-22.48
-19.59
-15.85
-12.24
-9.14
-6.50
-4.15
-1.96
0.09
2.07
4.03
5.97
7.74
9.02
9.36
8.28
5.53
1.25
-3.85
-8.53
-11.26
-10.64
-5.97
2.52
13.61
25.67
37.06
46.74
54.23
59.53
62.68
63.65
62.26
58.46
52.43
44.66
35.79
26.40
16.89
7.50
-1.50
-9.60
-16.00
-19.92
-20.90
-19.19
-15.78
-12.08
-9.42
-8.54
-9.32
-11.05
-12.79
-13.91
-14.29
-14.29
-14.52
-15.46
-17.39
-20.36
-24.21
-28.63
-33.14
-37.05
-39.52
-39.82
-37.47
-32.47
-25.31
-16.79
-7.88
0.60
7.93
13.67
17.59
19.73
20.33
19.77
18.43
16.62
14.47
12.12
9.78
7.76
6.44
6.06
6.63
7.79
8.94
9.43
8.75
6.69
3.44
-0.50
-4.48
-7.83
-9.97
-10.52
-9.40
-6.84
-3.50
-0.35
1.58
1.49
-0.72
-4.34
-8.03
-10.29
-10.05
-7.02
-1.76
4.65
11.08
16.68
21.09
24.22
26.17
27.04
26.78
25.14
21.74
16.20
8.45
-1.05
-11.17
-20.35
-27.14
-30.83
-31.70
-30.93
-29.97
-29.87
-30.83
-32.18
-32.83
-31.82
-28.72
-23.80
-17.94
-12.41
-8.62
-7.79
-10.70
-17.40
-27.14
-38.54
-49.97
-60.03
-67.83
-72.92
-75.11
-74.23
-70.04
-62.49
-51.95
-39.40
-26.24
-13.91
-3.41
4.90
11.21
15.89
19.10
20.58
19.91
16.75
11.43
4.93
-1.38
-6.29
-9.29
-10.74
-11.59
-12.91
-15.37
-19.04
-23.38
-27.66
-31.21
-33.73
-35.46
-37.16
-39.90
-44.76
-52.37
-62.49
-73.80
-84.18
-91.34
-93.60
-90.37
-82.10
-69.81
-54.50
-36.59
-16.00
7.59
33.91
61.69
88.44
110.86
125.80
131.43
128.26
119.38
109.67
104.12
105.94
115.34
129.56
144.23
155.19
160.01
158.34
151.30
140.52
127.21
111.70
93.42
71.45
45.14
14.91
-17.41
-48.74
-75.64
-95.72
-108.70
-116.51
-122.22
-128.38
-135.69
-142.79
-147.24
-146.99
-141.40
-131.28
-118.10
-103.09
-86.92
-69.80
-51.96
-34.08
-17.37
-3.39
6.51
11.53
11.64
7.72
1.43
-4.94
-9.02
-8.73
-2.98
8.10
23.02
39.33
54.09
64.62
68.89
65.87
55.58
38.90
17.47
-6.61
-31.01
-53.35
-71.50
-83.87
-89.65
-89.03
-83.35
-74.92
-66.56
-61.01
-60.26
-64.96
-74.30
-86.01
-96.95
-103.92
-104.49
-97.65
-84.02
-65.42
-44.23
-22.50
-1.57
18.01
36.08
52.42
66.54
77.75
85.49
89.68
90.83
89.83
87.61
84.74
81.31
76.97
71.35
64.42
56.72
49.31
43.32
39.41
37.36
36.22
34.80
32.42
29.28
26.31
24.73
25.24
27.70
31.18
34.38
36.13
35.64
32.48
26.36
16.96
4.07
-12.24
-31.26
-51.52
-70.95
-87.20
-98.16
-102.45
-99.70
-90.71
-77.22
-61.51
-45.79
-31.78
-20.41
-11.89
-5.95
-2.24
-0.41
-0.14
-0.93
-2.15
-3.10
-3.26
-2.48
-1.06
0.46
1.60
2.24
2.59
3.09
4.01
5.25
6.31
6.51
5.27
2.40
-1.86
-6.91
-12.01
-16.55
-20.24
-23.17
-25.87
-29.07
-33.44
-39.34
-46.54
-54.15
-60.81
-64.97
-65.35
-61.24
-52.77
-40.78
-26.66
-11.97
1.94
14.21
24.50
32.81
39.28
43.91
46.57
47.08
45.46
42.07
37.68
33.23
29.63
27.49
27.00
27.97
29.91
32.23
34.33
35.68
35.91
34.80
32.38
28.84
24.65
20.27
16.09
12.21
8.39
4.19
-0.74
-6.43
-12.49
-18.27
-23.25
-27.32
-30.94
-35.02
-40.53
-48.13
-57.81
-68.76
-79.33
-87.25
-90.12
-86.00
-74.16
-55.48
-32.36
-8.05
14.40
32.98
47.13
57.46
64.98
70.49
74.20
75.97
75.78
74.01
71.54
69.30
67.87
67.19
66.71
65.82
64.20
62.07
59.97
58.37
57.32
56.32
54.64
51.60
47.07
41.46
35.51
29.91
24.96
20.50
16.08
11.25
5.79
-0.10
-6.03
-11.52
-16.27
-20.28
-23.91
-27.72
-32.34
-38.26
-45.58
-53.76
-61.63
-67.45
-69.36
-65.96
-56.79
-42.65
-25.41
-7.46
9.03
22.70
33.21
40.96
46.53
50.28
52.24
52.25
50.49
47.57
44.48
42.23
41.36
41.77
42.83
43.73
43.86
43.10
41.73
40.13
38.57
37.00
35.09
32.45
28.86
24.33
19.12
13.66
8.36
3.48
-0.90
-4.84
-8.55
-12.27
-16.34
-21.14
-26.86
-33.47
-40.44
-46.78
-51.20
-52.40
-49.54
-42.46
-31.85
-19.03
-5.67
6.69
17.02
24.95
30.68
34.77
37.73
39.81
41.05
41.43
41.08
40.42
39.94
39.94
40.37
40.81
40.76
39.97
38.57
37.03
35.82
35.17
34.92
34.64
33.82
32.09
29.31
25.58
21.19
16.55
12.12
8.25
5.15
2.77
0.83
-1.12
-3.49
-6.56
-10.28
-14.38
-18.34
-21.75
-24.38
-26.41
-28.37
-30.94
-34.75
-40.08
-46.61
-53.51
-59.49
-63.16
-63.40
-59.65
-52.05
-41.44
-29.11
-16.43
-4.66
5.30
13.00
18.36
21.66
23.32
23.83
23.62
23.02
22.24
21.42
20.67
20.10
19.82
19.85
20.17
20.67
21.22
21.69
21.91
21.79
21.21
20.11
18.55
16.63
14.42
11.99
9.32
6.37
3.15
-0.23
-3.58
-6.68
-9.44
-11.94
-14.41
-17.14
-20.41
-24.37
-29.01
-34.13
-39.31
-43.82
-46.71
-47.01
-44.05
-37.76
-28.82
-18.42
-7.99
1.35
8.95
14.76
19.07
22.25
24.55
26.14
27.08
27.43
27.24
26.55
25.35
23.64
21.51
19.21
17.10
15.53
14.72
14.65
15.06
15.54
15.69
15.22
14.03
12.18
9.88
7.39
5.01
2.92
1.10
-0.72
-2.94
-5.91
-9.76
-14.23
-18.77
-22.76
-25.85
-28.09
-30.00
-32.29
-35.54
-39.93
-45.12
-50.30
-54.36
-56.21
-54.98
-50.24
-42.17
-31.56
-19.62
-7.77
2.81
11.41
17.87
22.46
25.54
27.41
28.18
27.91
26.74
25.06
23.44
22.34
22.01
22.28
22.73
22.91
22.54
21.70
20.70
19.80
19.07
18.27
17.03
15.07
12.38
9.30
6.26
3.65
1.54
-0.27
-2.10
-4.27
-6.96
-10.20
-13.84
-17.62
-21.20
-24.25
-26.55
-28.13
-29.34
-30.74
-32.94
-36.30
-40.69
-45.46
-49.54
-51.76
-51.18
-47.36
-40.50
-31.42
-21.27
-11.28
-2.48
4.55
9.66
13.16
15.52
17.27
18.70
19.84
20.51
20.48
19.71
18.38
16.85
15.49
14.55
14.05
13.87
13.86
13.89
13.85
13.65
13.10
12.03
10.35
8.05
5.25
2.08
-1.33
-4.81
-8.23
-11.42
-14.29
-16.88
-19.40
-22.16
-25.41
-29.25
-33.54
-37.97
-42.01
-44.98
-46.15
-44.85
-40.71
-33.85
-24.94
-15.06
-5.39
3.15
10.05
15.21
18.81
21.13
22.42
22.89
22.79
22.36
21.83
21.37
21.05
20.89
20.86
20.89
20.92
20.90
20.80
20.60
20.24
19.67
18.81
17.60
16.07
14.26
12.20
9.91
7.39
4.63
1.64
-1.51
-4.72
-7.94
-11.13
-14.30
-17.41
-20.34
-22.95
-25.18
-27.17
-29.30
-32.08
-35.88
-40.65
-45.71
-49.89
-51.82
-50.47
-45.52
-37.60
-27.90
-17.83
-8.43
-0.25
6.64
12.37
17.00
20.46
22.59
23.34
22.87
21.49
19.62
17.68
15.96
14.66
13.79
13.26
12.90
12.56
12.18
11.79
11.42
10.99
10.26
8.99
7.01
4.32
1.14
-2.22
-5.48
-8.46
-11.08
-13.42
-15.62
-17.96
-20.78
-24.37
-28.87
-34.10
-39.47
-44.11
-46.98
-47.16
-44.11
-37.90
-29.20
-19.14
-9.01
0.15
7.76
13.79
18.46
22.01
24.54
26.01
26.39
25.82
24.68
23.47
22.58
22.17
22.11
22.16
22.00
21.51
20.72
19.79
18.90
18.16
17.49
16.67
15.44
13.52
10.81
7.35
3.29
-1.13
-5.65
-10.02
-13.99
-17.40
-20.28
-22.93
-25.89
-29.70
-34.67
-40.54
-46.38
-50.85
-52.53
-50.48
-44.50
-35.24
-23.89
-11.93
-0.74
8.64
15.67
20.36
23.21
24.98
26.38
27.81
29.24
30.37
30.91
30.78
30.25
29.66
29.30
29.14
28.92
28.36
27.32
25.90
24.27
22.63
20.99
19.22
17.11
14.54
11.48
8.03
4.31
0.47
-3.40
-7.22
-10.94
-14.51
-17.89
-21.14
-24.43
-28.01
-32.21
-37.20
-42.95
-48.93
-54.20
-57.50
-57.68
-54.09
-46.84
-36.83
-25.48
-14.22
-4.14
4.27
11.02
16.36
20.59
23.85
26.13
27.35
27.48
26.58
24.89
22.77
20.63
18.82
17.56
16.86
16.59
16.62
16.84
17.20
17.60
17.81
17.46
16.15
13.68
10.10
5.73
1.07
-3.47
-7.66
-11.48
-15.10
-18.79
-22.83
-27.48
-32.80
-38.57
-44.16
-48.54
-50.50
-48.99
-43.52
-34.49
-23.07
-10.88
0.53
10.10
17.48
22.81
26.50
28.89
30.16
30.47
30.04
29.24
28.48
28.06
28.03
28.23
28.44
28.50
28.38
28.15
27.84
27.45
26.92
26.14
25.01
23.47
21.47
18.98
16.06
12.84
9.51
6.21
3.01
-0.18
-3.51
-7.12
-11.02
-15.09
-19.19
-23.21
-27.16
-31.20
-35.57
-40.50
-45.97
-51.57
-56.36
-59.11
-58.60
-54.06
-45.51
-33.88
-20.69
-7.64
3.87
13.12
20.10
25.32
29.39
32.72
35.36
37.15
37.87
37.50
36.28
34.68
33.11
31.88
31.08
30.62
30.36
30.16
29.85
29.21
27.99
26.00
23.28
20.11
16.95
14.11
11.60
9.12
6.17
2.42
-2.10
-6.96
-11.60
-15.63
-18.97
-21.90
-24.85
-28.21
-32.20
-36.81
-41.77
-46.51
-50.11
-51.48
-49.67
-44.25
-35.66
-24.99
-13.73
-3.16
5.97
13.49
19.59
24.50
28.23
30.58
31.34
30.49
28.41
25.86
23.71
22.61
22.68
23.53
24.41
24.58
23.73
22.05
20.04
18.25
16.90
15.83
14.68
13.08
10.86
8.04
4.78
1.26
-2.33
-5.88
-9.34
-12.73
-16.16
-19.80
-23.83
-28.35
-33.31
-38.46
-43.23
-46.79
-48.14
-46.41
-41.18
-32.76
-22.15
-10.82
-0.19
8.80
15.89
21.37
25.76
29.40
32.29
34.14
34.70
34.00
32.50
30.91
29.82
29.48
29.68
29.93
29.87
29.41
28.82
28.44
28.47
28.78
28.99
28.60
27.26
24.85
21.54
17.68
13.75
10.16
7.13
4.56
2.10
-0.70
-4.14
-8.12
-12.18
-15.74
-18.44
-20.38
-22.06
-24.08
-26.92
-30.75
-35.48
-40.86
-46.48
-51.71
-55.50
-56.57
-53.74
-46.51
-35.47
-22.18
-8.73
3.06
12.13
18.38
22.40
24.92
26.48
27.29
27.33
26.62
25.35
23.85
22.54
21.70
21.36
21.31
21.19
20.73
19.84
18.68
17.57
16.76
16.29
15.99
15.49
14.44
12.64
10.06
6.83
3.14
-0.81
-4.86
-8.84
-12.61
-16.04
-19.05
-21.71
-24.18
-26.79
-29.95
-33.87
-38.36
-42.75
-45.93
-46.71
-44.28
-38.52
-30.06
-20.08
-9.88
-0.53
7.33
13.51
18.11
21.33
23.43
24.63
25.13
25.11
24.71
24.01
23.11
22.15
21.23
20.43
19.76
19.10
18.35
17.37
16.15
14.76
13.29
11.78
10.14
8.21
5.81
2.92
-0.29
-3.57
-6.65
-9.42
-11.93
-14.38
-16.98
-19.92
-23.30
-27.29
-32.00
-37.36
-42.93
-47.72
-50.43
-49.82
-45.23
-36.95
-26.11
-14.33
-3.09
6.62
14.42
20.35
24.56
27.09
27.97
27.36
25.62
23.41
21.44
20.25
20.02
20.59
21.50
22.30
22.66
22.54
22.07
21.44
20.83
20.21
19.44
18.29
16.60
14.32
11.59
8.63
5.74
3.20
1.10
-0.57
-2.03
-3.54
-5.40
-7.79
-10.70
-13.98
-17.35
-20.57
-23.61
-26.65
-30.03
-34.08
-38.90
-44.25
-49.49
-53.69
-55.82
-55.01
-50.81
-43.33
-33.24
-21.62
-9.71
1.37
10.77
18.04
23.08
26.07
27.39
27.49
26.85
25.89
24.96
24.31
24.07
24.27
24.81
25.45
25.91
26.03
25.78
25.33
24.87
24.44
23.86
22.78
20.91
18.18
14.85
11.38
8.14
5.39
3.07
0.96
-1.25
-3.82
-6.92
-10.52
-14.46
-18.40
-22.00
-25.01
-27.44
-29.61
-32.09
-35.43
-39.88
-45.10
-50.16
-53.74
-54.55
-51.80
-45.44
-36.23
-25.52
-14.71
-4.93
3.25
9.80
15.01
19.15
22.28
24.26
24.90
24.23
22.62
20.72
19.19
18.41
18.34
18.56
18.60
18.16
17.30
16.30
15.47
14.85
14.28
13.43
12.04
10.00
7.35
4.25
0.87
-2.61
-6.04
-9.29
-12.39
-15.43
-18.63
-22.22
-26.31
-30.90
-35.78
-40.54
-44.57
-47.05
-47.11
-44.11
-37.95
-29.15
-18.85
-8.42
0.94
8.60
14.49
18.91
22.23
24.63
26.09
26.54
26.09
25.09
24.07
23.47
23.51
24.00
24.50
24.60
24.13
23.27
22.47
22.09
22.23
22.59
22.65
21.93
20.19
17.56
14.40
11.08
7.81
4.54
1.12
-2.51
-6.26
-9.85
-13.03
-15.71
-17.99
-20.14
-22.45
-25.10
-28.20
-31.83
-36.05
-40.83
-45.93
-50.66
-54.02
-54.88
-52.37
-46.20
-36.84
-25.45
-13.46
-2.29
7.11
14.39
19.74
23.59
26.33
28.09
28.84
28.52
27.28
25.62
24.12
23.32
23.40
24.08
24.85
25.20
24.86
23.88
22.54
21.10
19.68
18.19
16.45
14.31
11.71
8.70
5.36
1.77
-1.97
-5.75
-9.43
-12.87
-16.05
-19.05
-22.03
-25.23
-28.84
-33.02
-37.81
-43.08
-48.30
-52.61
-54.86
-53.96
-49.33
-41.11
-30.24
-18.11
-6.19
4.31
12.67
18.62
22.33
24.20
24.79
24.62
24.08
23.36
22.54
21.67
20.87
20.33
20.15
20.24
20.33
20.10
19.39
18.29
17.06
15.95
15.02
14.05
12.66
10.48
7.37
3.41
-1.05
-5.59
-9.79
-13.42
-16.48
-19.21
-22.04
-25.52
-30.06
-35.68
-41.83
-47.34
-50.76
-50.80
-46.84
-39.17
-28.85
-17.33
-5.93
4.44
13.36
20.69
26.40
30.37
32.55
33.06
32.31
30.95
29.61
28.70
28.35
28.42
28.64
28.78
28.76
28.62
28.43
28.23
27.86
27.07
25.57
23.22
20.15
16.73
13.39
10.40
7.71
4.98
1.76
-2.19
-6.79
-11.61
-16.07
-19.76
-22.66
-25.07
-27.52
-30.56
-34.56
-39.66
-45.75
-52.34
-58.56
-63.22
-65.01
-62.92
-56.56
-46.39
-33.63
-19.86
-6.61
5.01
14.44
21.63
26.87
30.53
32.94
34.42
35.19
35.49
35.55
35.57
35.66
35.85
36.07
36.23
36.29
36.20
35.94
35.42
34.51
33.08
31.07
28.61
25.94
23.32
20.86
18.50
16.00
13.04
9.40
5.03
0.11
-5.02
-10.01
-14.63
-18.88
-22.97
-27.25
-32.04
-37.51
-43.53
-49.62
-54.95
-58.47
-59.10
-56.10
-49.32
-39.33
-27.27
-14.60
-2.63
7.70
16.01
22.33
26.92
30.04
31.87
32.56
32.25
31.19
29.66
28.00
26.50
25.36
24.62
24.20
23.91
23.57
23.10
22.44
21.60
20.57
19.23
17.43
15.02
11.89
8.16
4.05
-0.17
-4.28
-8.20
-11.95
-15.63
-19.31
-23.09
-27.09
-31.56
-36.77
-42.82
-49.37
-55.52
-59.87
-60.89
-57.49
-49.44
-37.57
-23.44
-8.96
4.29
15.32
23.86
30.09
34.35
36.94
38.08
37.93
36.77
34.99
33.05
31.37
30.18
29.51
29.17
28.83
28.17
27.05
25.52
23.80
22.18
20.80
19.57
18.15
16.12
13.12
9.05
4.14
-1.13
-6.19
-10.59
-14.13
-16.92
-19.34
-21.88
-25.02
-29.10
-34.26
-40.33
-46.76
-52.63
-56.69
-57.69
-54.70
-47.54
-36.92
-24.18
-11.00
1.26
11.72
20.06
26.35
30.75
33.41
34.54
34.44
33.59
32.52
31.66
31.19
31.03
30.95
30.69
30.13
29.35
28.57
28.04
27.90
28.07
28.21
27.85
26.57
24.21
20.93
17.13
13.23
9.52
6.06
2.68
-0.82
-4.59
-8.58
-12.69
-16.73
-20.59
-24.17
-27.49
-30.66
-33.98
-37.80
-42.45
-47.93
-53.73
-58.79
-61.69
-61.15
-56.47
-47.86
-36.40
-23.65
-11.15
0.03
9.35
16.72
22.24
25.92
27.81
28.05
27.04
25.42
23.86
22.87
22.62
22.94
23.43
23.75
23.68
23.18
22.36
21.39
20.39
19.37
18.23
16.69
14.41
11.11
6.79
1.73
-3.48
-8.21
-12.02
-14.86
-17.04
-19.13
-21.72
-25.29
-30.05
-35.88
-42.25
-48.22
-52.54
-53.89
-51.29
-44.46
-34.00
-21.29
-8.09
4.03
13.98
21.35
26.26
29.15
30.51
30.81
30.39
29.52
28.41
27.18
25.90
24.64
23.50
22.59
22.02
21.87
22.01
22.26
22.32
21.93
20.93
19.34
17.28
14.93
12.42
9.75
6.81
3.40
-0.66
-5.38
-10.59
-15.94
-20.96
-25.29
-28.75
-31.45
-33.81
-36.47
-40.03
-44.86
-50.77
-56.92
-61.89
-64.04
-62.07
-55.49
-44.89
-31.70
-17.77
-4.75
6.27
14.92
21.31
25.79
28.65
30.11
30.36
29.63
28.25
26.65
25.23
24.31
24.02
24.32
24.98
25.70
26.15
26.17
25.75
24.99
23.97
22.70
21.01
18.72
15.72
12.05
7.94
3.70
-0.44
-4.36
-8.12
-11.84
-15.62
-19.44
-23.26
-27.06
-30.93
-35.17
-40.06
-45.61
-51.41
-56.45
-59.35
-58.79
-54.02
-45.18
-33.36
-20.21
-7.45
3.68
12.61
19.41
24.45
28.07
30.46
31.61
31.57
30.57
29.06
27.61
26.62
26.27
26.42
26.79
27.06
27.03
26.65
26.01
25.29
24.56
23.73
22.55
20.66
17.75
13.77
8.99
3.98
-0.71
-4.73
-8.08
-11.07
-14.16
-17.69
-21.84
-26.66
-32.16
-38.25
-44.58
-50.43
-54.63
-55.87
-53.10
-46.06
-35.47
-22.85
-9.99
1.65
11.32
18.96
24.90
29.44
32.63
34.30
34.36
33.01
30.77
28.34
26.28
24.83
23.95
23.40
22.97
22.54
22.09
21.57
20.90
19.99
18.73
17.13
15.17
12.89
10.24
7.18
3.69
-0.21
-4.38
-8.66
-12.91
-17.14
-21.41
-25.91
-30.78
-36.15
-41.98
-48.00
-53.58
-57.81
-59.61
-58.07
-52.80
-44.12
-33.00
-20.83
-8.98
1.61
10.46
17.55
23.01
26.97
29.45
30.47
30.16
28.80
26.86
24.81
23.03
21.70
20.82
20.24
19.83
19.53
19.33
19.23
19.09
18.66
17.61
15.61
12.51
8.37
3.52
-1.56
-6.39
-10.69
-14.45
-18.01
-21.96
-26.88
-33.05
-40.23
-47.47
-53.30
-56.16
-54.87
-49.07
-39.36
-27.11
-13.98
-1.46
9.43
18.29
25.06
29.92
33.07
34.69
35.01
34.32
33.03
31.54
30.12
28.92
27.94
27.12
26.40
25.77
25.17
24.57
23.85
22.92
21.65
19.98
17.83
15.11
11.71
7.56
2.65
-2.80
-8.41
-13.66
-18.15
-21.72
-24.62
-27.38
-30.68
-35.05
-40.65
-47.08
-53.39
-58.28
-60.40
-58.72
-52.82
-43.11
-30.68
-17.01
-3.60
8.42
18.44
26.30
32.13
36.13
38.47
39.33
38.95
37.72
36.15
34.69
33.63
32.97
32.52
32.05
31.49
30.94
30.61
30.69
31.09
31.44
31.20
29.85
27.20
23.45
19.18
15.02
11.40
8.32
5.43
2.20
-1.76
-6.42
-11.40
-16.11
-20.09
-23.24
-25.88
-28.58
-31.87
-36.12
-41.45
-47.64
-54.18
-60.19
-64.47
-65.71
-62.89
-55.69
-44.66
-31.20
-17.09
-3.98
7.08
15.80
22.46
27.51
31.35
34.09
35.67
36.01
35.17
33.46
31.34
29.35
27.85
26.95
26.46
26.00
25.26
24.12
22.73
21.38
20.32
19.60
19.03
18.20
16.74
14.40
11.12
7.04
2.41
-2.43
-7.13
-11.36
-14.92
-17.85
-20.41
-23.10
-26.44
-30.83
-36.29
-42.34
-47.97
-51.81
-52.50
-49.13
-41.58
-30.72
-18.08
-5.44
5.75
14.71
21.35
26.02
29.18
31.13
32.05
32.10
31.58
30.83
30.25
30.05
30.24
30.65
31.05
31.22
31.10
30.74
30.33
30.07
30.05
30.12
29.91
28.94
26.85
23.62
19.61
15.49
11.90
9.18
7.22
5.53
3.52
0.77
-2.81
-7.03
-11.46
-15.68
-19.37
-22.45
-25.09
-27.69
-30.77
-34.79
-39.94
-45.93
-51.89
-56.56
-58.63
-57.11
-51.72
-42.98
-32.04
-20.31
-9.08
0.74
8.71
14.80
19.16
22.04
23.65
24.23
24.05
23.42
22.60
21.71
20.79
19.85
18.96
18.30
17.98
18.08
18.45
18.84
18.99
18.74
18.07
16.99
15.50
13.50
10.90
7.71
4.08
0.21
-3.65
-7.33
-10.72
-13.69
-16.19
-18.21
-19.90
-21.59
-23.73
-26.79
-31.03
-36.37
-42.21
-47.46
-50.75
-50.78
-46.78
-38.87
-28.10
-16.14
-4.74
4.83
12.08
17.24
20.90
23.62
25.57
26.69
26.84
26.05
24.70
23.27
22.23
21.71
21.56
21.48
21.21
20.74
20.24
19.90
19.74
19.54
18.93
17.62
15.57
13.01
10.36
7.94
5.89
4.06
2.15
-0.18
-3.12
-6.62
-10.44
-14.17
-17.45
-20.03
-21.95
-23.60
-25.55
-28.44
-32.61
-37.95
-43.75
-48.86
-51.92
-51.79
-47.88
-40.36
-30.17
-18.72
-7.51
2.29
10.11
15.92
20.07
22.92
24.76
25.69
25.77
25.13
24.04
22.78
21.64
20.81
20.37
20.31
20.50
20.82
21.08
21.20
21.14
20.91
20.49
19.76
18.54
16.65
14.11
11.10
7.93
4.86
1.98
-0.81
-3.71
-6.85
-10.20
-13.54
-16.60
-19.20
-21.32
-23.10
-24.81
-26.79
-29.38
-32.85
-37.24
-42.21
-47.03
-50.61
-51.81
-49.82
-44.43
-36.18
-26.22
-15.91
-6.42
1.51
7.68
12.25
15.51
17.69
18.92
19.24
18.78
17.77
16.56
15.54
14.96
14.93
15.34
15.94
16.46
16.69
16.56
16.12
15.48
14.74
13.89
12.84
11.41
9.36
6.60
3.09
-1.01
-5.42
-9.73
-13.59
-16.75
-19.14
-20.93
-22.45
-24.18
-26.57
-29.90
-34.10
-38.70
-42.76
-45.09
-44.59
-40.60
-33.19
-23.25
-12.19
-1.52
7.62
14.65
19.60
22.78
24.61
25.34
25.17
24.27
22.88
21.34
19.99
18.97
18.30
17.90
17.70
17.71
17.97
18.44
18.95
19.21
18.92
17.91
16.22
14.04
11.60
9.07
6.47
3.74
0.81
-2.37
-5.72
-9.11
-12.41
-15.53
-18.42
-21.10
-23.59
-25.96
-28.35
-30.98
-34.02
-37.48
-40.98
-43.76
-44.85
-43.34
-38.79
-31.43
-22.09
-11.97
-2.25
6.23
13.10
18.36
22.15
24.65
25.94
26.05
25.05
23.19
20.89
18.64
16.92
15.97
15.78
16.15
16.71
17.08
17.02
16.41
15.33
13.90
12.30
10.62
8.86
6.93
4.70
2.10
-0.88
-4.15
-7.60
-11.14
-14.67
-18.15
-21.54
-24.90
-28.38
-32.23
-36.61
-41.45
-46.29
-50.26
-52.27
-51.31
-46.89
-39.21
-29.20
-18.22
-7.65
1.49
8.76
14.22
18.22
21.05
22.84
23.58
23.31
22.26
20.89
19.70
19.06
19.01
19.34
19.69
19.78
19.50
18.94
18.26
17.60
16.99
16.33
15.42
13.98
11.73
8.49
4.33
-0.40
-5.18
-9.51
-13.10
-16.00
-18.51
-21.05
-24.02
-27.70
-32.18
-37.38
-42.87
-47.86
-51.27
-51.95
-49.06
-42.36
-32.37
-20.24
-7.47
4.48
14.48
21.91
26.63
28.94
29.48
29.00
28.19
27.52
27.19
27.12
27.09
26.92
26.48
25.84
25.17
24.73
24.70
25.09
25.65
25.94
25.51
24.11
21.80
18.89
15.75
12.61
9.47
6.19
2.63
-1.19
-5.12
-8.94
-12.54
-15.93
-19.22
-22.61
-26.27
-30.40
-35.14
-40.59
-46.53
-52.37
-57.06
-59.36
-58.14
-52.91
-44.02
-32.68
-20.52
-9.19
0.25
7.46
12.73
16.64
19.65
21.90
23.28
23.61
22.96
21.68
20.29
19.25
18.77
18.75
18.91
19.03
19.05
19.06
19.17
19.35
19.32
18.71
17.13
14.43
10.71
6.29
1.62
-2.91
-7.01
-10.57
-13.69
-16.69
-19.99
-24.04
-29.15
-35.36
-42.24
-48.88
-53.98
-56.10
-54.16
-47.78
-37.49
-24.64
-10.96
1.91
12.82
21.33
27.54
31.84
34.62
36.07
36.28
35.32
33.41
30.94
28.49
26.62
25.72
25.92
26.98
28.45
29.81
30.70
30.91
30.43
29.30
27.60
25.39
22.70
19.54
15.92
11.83
7.31
2.51
-2.35
-7.00
-11.19
-14.86
-18.10
-21.23
-24.60
-28.63
-33.56
-39.37
-45.72
-51.82
-56.57
-58.70
-57.19
-51.61
-42.31
-30.38
-17.34
-4.70
6.40
15.38
22.24
27.28
30.86
33.23
34.49
34.62
33.71
31.99
29.87
27.85
26.37
25.63
25.53
25.74
25.82
25.43
24.46
22.99
21.22
19.31
17.23
14.77
11.67
7.78
3.23
-1.61
-6.25
-10.28
-13.64
-16.61
-19.68
-23.36
-28.03
-33.82
-40.56
-47.80
-54.76
-60.37
-63.42
-62.82
-58.04
-49.24
-37.37
-23.87
-10.29
2.15
12.74
21.20
27.58
32.01
34.62
35.60
35.21
33.81
31.86
29.89
28.35
27.49
27.32
27.54
27.76
27.69
27.23
26.52
25.81
25.20
24.54
23.43
21.37
17.97
13.18
7.34
1.08
-4.96
-10.35
-14.93
-18.88
-22.58
-26.47
-30.95
-36.32
-42.59
-49.44
-55.94
-60.71
-62.18
-59.11
-51.13
-39.03
-24.52
-9.63
3.90
15.12
23.88
30.50
35.38
38.79
40.78
41.45
41.03
39.94
38.74
37.89
37.63
37.88
38.38
38.77
38.88
38.68
38.26
37.66
36.79
35.38
33.17
30.10
26.43
22.64
19.11
15.93
12.76
9.10
4.61
-0.66
-6.22
-11.48
-16.01
-19.81
-23.26
-26.89
-31.17
-36.39
-42.55
-49.45
-56.57
-63.05
-67.64
-69.00
-66.05
-58.49
-46.95
-32.95
-18.36
-4.89
6.39
15.13
21.55
26.08
29.09
30.78
31.22
30.57
29.18
27.59
26.37
25.87
26.16
26.95
27.80
28.29
28.27
27.80
27.16
26.57
26.02
25.29
23.95
21.64
18.17
13.66
8.50
3.22
-1.74
-6.14
-10.06
-13.78
-17.67
-22.10
-27.31
-33.40
-40.26
-47.38
-53.83
-58.37
-59.69
-56.84
-49.56
-38.51
-25.04
-10.84
2.54
14.00
23.06
29.69
34.25
37.16
38.90
39.85
40.26
40.24
39.80
38.91
37.65
36.15
34.68
33.48
32.73
32.44
32.55
32.81
32.93
32.55
31.33
29.02
25.60
21.37
16.83
12.55
8.88
5.77
2.80
-0.59
-4.79
-9.86
-15.41
-20.87
-25.74
-29.81
-33.30
-36.71
-40.67
-45.58
-51.35
-57.17
-61.68
-63.25
-60.58
-53.16
-41.51
-27.13
-11.95
2.15
13.92
22.82
28.96
32.78
34.74
35.29
34.77
33.59
32.18
30.96
30.22
29.98
30.07
30.22
30.16
29.84
29.35
28.84
28.41
27.98
27.34
26.20
24.35
21.75
18.53
14.96
11.29
7.71
4.24
0.78
-2.79
-6.65
-10.80
-15.12
-19.40
-23.45
-27.20
-30.76
-34.48
-38.76
-43.89
-49.81
-55.98
-61.30
-64.36
-63.85
-59.04
-50.06
-37.95
-24.33
-10.87
1.13
11.01
18.68
24.36
28.32
30.72
31.65
31.26
29.87
27.95
26.05
24.59
23.75
23.44
23.36
23.20
22.76
22.00
21.04
20.03
19.01
17.88
16.43
14.41
11.72
8.37
4.56
0.59
-3.30
-6.91
-10.25
-13.48
-16.85
-20.64
-25.03
-30.12
-35.82
-41.84
-47.51
-51.90
-53.88
-52.52
-47.38
-38.81
-27.80
-15.72
-3.86
6.81
15.75
22.78
27.87
31.13
32.73
33.02
32.43
31.37
30.13
28.79
27.40
26.01
24.82
24.03
23.72
23.76
23.82
23.53
22.68
21.33
19.69
18.02
16.41
14.76
12.83
10.36
7.25
3.53
-0.72
-5.34
-10.18
-14.99
-19.49
-23.44
-26.72
-29.44
-31.94
-34.63
-37.94
-42.15
-47.21
-52.77
-58.00
-61.70
-62.47
-59.20
-51.45
-39.81
-25.77
-11.34
1.67
12.15
19.86
25.23
28.84
31.09
32.14
32.09
31.13
29.71
28.34
27.45
27.12
27.16
27.24
27.15
26.85
26.39
25.83
25.07
23.97
22.46
20.61
18.58
16.52
14.39
12.01
9.14
5.69
1.80
-2.28
-6.32
-10.24
-14.05
-17.82
-21.55
-25.23
-28.96
-32.99
-37.67
-43.10
-48.81
-53.63
-55.96
-54.35
-48.14
-37.83
-24.98
-11.61
0.50
10.25
17.44
22.42
25.71
27.69
28.49
28.15
26.77
24.69
22.35
20.25
18.71
17.81
17.41
17.19
16.87
16.31
15.59
14.91
14.45
14.15
13.69
12.55
10.25
6.58
1.76
-3.63
-8.88
-13.38
-16.92
-19.65
-21.99
-24.46
-27.44
-31.20
-35.77
-40.96
-46.26
-50.79
-53.37
-52.87
-48.58
-40.55
-29.68
-17.46
-5.48
5.05
13.54
19.95
24.54
27.59
29.27
29.63
28.77
26.89
24.38
21.71
19.36
17.60
16.46
15.71
15.05
14.21
13.19
12.17
11.43
11.03
10.73
10.01
8.27
5.19
0.90
-4.09
-9.08
-13.47
-17.02
-19.87
-22.45
-25.29
-28.89
-33.55
-39.23
-45.49
-51.37
-55.48
-56.35
-52.90
-44.91
-33.24
-19.60
-6.01
5.86
15.10
21.61
25.81
28.26
29.37
29.36
28.38
26.72
24.86
23.31
22.49
22.52
23.19
24.02
24.50
24.24
23.16
21.46
19.52
17.70
16.16
14.80
13.30
11.23
8.34
4.56
0.10
-4.65
-9.32
-13.59
-17.38
-20.83
-24.26
-28.11
-32.78
-38.50
-45.10
-51.94
-57.99
-61.95
-62.65
-59.33
-51.86
-40.85
-27.52
-13.37
0.08
11.64
20.62
26.90
30.75
32.73
33.41
33.29
32.76
32.09
31.48
31.05
30.82
30.74
30.60
30.29
29.72
28.89
27.88
26.74
25.47
23.99
22.18
19.94
17.22
14.03
10.45
6.58
2.59
-1.42
-5.31
-9.02
-12.56
-16.01
-19.51
-23.20
-27.21
-31.67
-36.69
-42.37
-48.63
-55.02
-60.64
-64.25
-64.51
-60.56
-52.30
-40.61
-27.02
-13.34
-1.00
9.16
16.91
22.49
26.26
28.52
29.53
29.50
28.70
27.52
26.36
25.55
25.29
25.53
26.05
26.51
26.65
26.30
25.52
24.47
23.38
22.36
21.37
20.18
18.44
15.79
12.06
7.30
1.84
-3.82
-9.22
-14.04
-18.20
-21.93
-25.59
-29.63
-34.45
-40.21
-46.68
-53.11
-58.25
-60.63
-58.99
-52.79
-42.45
-29.30
-15.11
-1.58
10.17
19.62
26.80
31.94
35.29
37.03
37.33
36.52
35.06
33.50
32.35
31.87
32.08
32.73
33.44
33.87
33.86
33.51
33.05
32.68
32.37
31.81
30.60
28.42
25.24
21.38
17.42
13.83
10.85
8.32
5.74
2.56
-1.54
-6.45
-11.73
-16.74
-20.97
-24.24
-26.78
-29.03
-31.55
-34.85
-39.30
-45.07
-51.92
-59.03
-64.93
-67.78
-65.94
-58.70
-46.63
-31.50
-15.68
-1.28
10.42
19.14
25.29
29.47
32.11
33.39
33.41
32.44
31.07
30.01
29.79
30.48
31.65
32.57
32.60
31.52
29.61
27.52
25.88
25.07
25.03
25.32
25.35
24.57
22.69
19.71
15.94
11.88
7.98
4.50
1.40
-1.59
-4.81
-8.47
-12.54
-16.81
-21.02
-24.98
-28.57
-31.78
-34.74
-37.69
-41.01
-45.03
-49.84
-55.04
-59.69
-62.43
-61.95
-57.42
-48.77
-36.79
-22.90
-8.77
4.13
14.80
22.90
28.65
32.55
35.07
36.49
36.82
36.03
34.24
31.86
29.51
27.76
26.91
26.86
27.23
27.59
27.68
27.44
26.93
26.14
24.90
23.01
20.36
17.08
13.55
10.18
7.18
4.47
1.74
-1.35
-4.93
-8.81
-12.63
-16.03
-18.91
-21.48
-24.20
-27.53
-31.76
-36.87
-42.40
-47.60
-51.48
-53.01
-51.37
-46.20
-37.77
-26.94
-14.98
-3.22
7.22
15.72
22.11
26.65
29.68
31.49
32.22
31.95
30.84
29.22
27.61
26.49
26.16
26.57
27.39
28.17
28.59
28.59
28.25
27.70
26.97
25.90
24.30
22.06
19.23
16.02
12.69
9.38
6.13
2.82
-0.69
-4.46
-8.39
-12.27
-15.84
-18.91
-21.47
-23.63
-25.67
-27.95
-30.81
-34.59
-39.40
-45.05
-50.86
-55.72
-58.27
-57.32
-52.27
-43.40
-31.86
-19.30
-7.32
2.88
10.85
16.61
20.54
22.97
24.18
24.30
23.46
21.95
20.19
18.66
17.76
17.68
18.28
19.23
20.11
20.61
20.63
20.24
19.64
18.96
18.16
17.04
15.39
13.03
10.00
6.46
2.65
-1.20
-4.96
-8.55
-11.94
-15.16
-18.16
-20.97
-23.72
-26.67
-30.20
-34.61
-39.88
-45.42
-50.11
-52.55
-51.51
-46.43
-37.68
-26.47
-14.38
-2.86
7.13
15.24
21.48
25.98
28.85
30.14
30.03
28.85
27.09
25.23
23.66
22.64
22.25
22.46
23.07
23.77
24.23
24.14
23.39
22.06
20.40
18.69
17.14
15.68
14.13
12.25
9.81
6.71
3.00
-1.16
-5.50
-9.68
-13.45
-16.69
-19.45
-21.94
-24.44
-27.22
-30.56
-34.64
-39.49
-44.85
-50.00
-53.86
-55.10
-52.63
-45.97
-35.62
-22.93
-9.76
2.13
11.59
18.27
22.47
24.76
25.68
25.63
24.80
23.48
21.99
20.74
19.99
19.79
19.93
20.09
20.01
19.61
19.01
18.34
17.71
17.03
16.12
14.74
12.78
10.28
7.46
4.57
1.83
-0.75
-3.34
-6.18
-9.47
-13.17
-17.06
-20.74
-23.94
-26.61
-29.03
-31.73
-35.19
-39.67
-44.94
-50.32
-54.82
-57.35
-56.98
-53.22
-46.02
-35.97
-24.04
-11.53
0.35
10.56
18.53
24.11
27.45
28.95
29.05
28.25
27.09
26.10
25.64
25.89
26.70
27.73
28.58
28.96
28.74
28.00
26.89
25.58
24.21
22.81
21.30
19.53
17.27
14.33
10.62
6.22
1.44
-3.30
-7.62
-11.34
-14.51
-17.43
-20.53
-24.24
-28.84
-34.39
-40.59
-46.70
-51.57
-53.88
-52.53
-47.09
-38.01
-26.52
-14.23
-2.62
7.39
15.50
21.80
26.51
29.72
31.43
31.68
30.70
28.91
26.84
24.98
23.65
22.96
22.87
23.21
23.78
24.34
24.69
24.68
24.24
23.36
22.04
20.33
18.24
15.82
13.04
9.83
6.13
1.98
-2.51
-7.04
-11.30
-15.02
-18.15
-20.89
-23.63
-26.86
-31.00
-36.26
-42.55
-49.36
-55.76
-60.45
-62.09
-59.66
-52.85
-42.27
-29.27
-15.59
-2.79
8.10
16.67
22.98
27.27
29.77
30.59
29.92
28.11
25.71
23.35
21.64
20.93
21.25
22.36
23.74
24.81
25.12
24.50
23.10
21.26
19.31
17.39
15.40
13.05
10.07
6.41
2.24
-2.10
-6.24
-9.91
-13.02
-15.66
-18.12
-20.83
-24.26
-28.79
-34.51
-41.08
-47.69
-53.22
-56.40
-56.20
-52.05
-44.05
-33.02
-20.22
-7.16
4.88
15.04
22.94
28.62
32.29
34.20
34.56
33.68
31.94
29.88
28.05
26.87
26.48
26.78
27.43
28.10
28.52
28.60
28.38
27.90
27.17
26.10
24.59
22.57
20.07
17.16
13.84
10.04
5.66
0.73
-4.55
-9.75
-14.45
-18.42
-21.81
-25.02
-28.62
-33.09
-38.57
-44.84
-51.22
-56.65
-59.87
-59.62
-55.11
-46.33
-34.12
-20.04
-5.90
6.73
16.91
24.30
29.12
31.84
33.02
33.28
33.14
32.98
33.05
33.33
33.67
33.90
33.91
33.75
33.51
33.29
33.09
32.80
32.23
31.21
29.63
27.51
24.97
22.17
19.29
16.43
13.60
10.68
7.49
3.81
-0.49
-5.35
-10.51
-15.54
-20.08
-24.03
-27.65
-31.53
-36.35
-42.52
-49.84
-57.41
-63.78
-67.29
-66.64
-61.25
-51.51
-38.71
-24.62
-11.05
0.67
9.90
16.62
21.18
24.05
25.57
25.98
25.52
24.51
23.38
22.59
22.37
22.73
23.40
24.02
24.26
24.02
23.40
22.61
21.84
21.12
20.23
18.74
16.23
12.43
7.50
1.98
-3.44
-8.17
-12.02
-15.23
-18.28
-21.70
-25.80
-30.64
-36.12
-42.01
-47.82
-52.79
-55.77
-55.48
-51.02
-42.31
-30.26
-16.58
-3.16
8.55
17.89
24.93
30.13
33.93
36.46
37.62
37.31
35.64
33.07
30.26
27.83
26.20
25.46
25.46
25.86
26.34
26.60
26.48
25.93
24.99
23.79
22.39
20.73
18.56
15.57
11.53
6.47
0.76
-5.02
-10.29
-14.71
-18.30
-21.38
-24.43
-27.93
-32.29
-37.76
-44.31
-51.44
-58.06
-62.64
-63.56
-59.67
-50.79
-37.85
-22.67
-7.37
6.28
17.25
25.34
30.92
34.60
36.93
38.23
38.69
38.40
37.48
36.10
34.50
32.94
31.60
30.59
29.88
29.33
28.79
28.13
27.29
26.33
25.30
24.22
22.96
21.35
19.20
16.40
12.95
8.91
4.36
-0.59
-5.83
-11.11
-16.21
-20.91
-25.18
-29.19
-33.26
-37.76
-42.95
-48.82
-54.99
-60.60
-64.45
-65.19
-61.80
-54.01
-42.55
-29.03
-15.36
-3.19
6.64
14.05
19.46
23.32
25.85
27.05
27.03
26.12
24.94
24.10
23.99
24.56
25.43
26.16
26.43
26.24
25.75
25.16
24.56
23.83
22.81
21.30
19.12
16.17
12.36
7.75
2.49
-3.03
-8.39
-13.20
-17.28
-20.75
-24.02
-27.57
-31.85
-37.08
-43.16
-49.59
-55.39
-59.22
-59.69
-55.76
-47.17
-34.73
-20.14
-5.50
7.38
17.49
24.77
29.82
33.42
36.05
37.77
38.35
37.62
35.68
32.99
30.20
27.88
26.35
25.65
25.60
25.91
26.31
26.55
26.43
25.79
24.54
22.63
20.13
17.11
13.64
9.82
5.73
1.49
-2.79
-7.00
-11.12
-15.13
-19.12
-23.19
-27.45
-32.06
-37.20
-43.00
-49.35
-55.76
-61.25
-64.48
-64.14
-59.41
-50.27
-37.66
-23.18
-8.61
4.53
15.38
23.75
29.88
34.21
37.08
38.70
39.16
38.64
37.38
35.73
33.98
32.35
30.89
29.60
28.54
27.78
27.44
27.50
27.73
27.71
26.95
25.15
22.34
18.91
15.36
12.05
9.02
5.92
2.28
-2.21
-7.46
-13.07
-18.46
-23.20
-27.25
-30.90
-34.65
-38.91
-43.88
-49.44
-55.17
-60.33
-63.98
-65.10
-62.83
-56.78
-47.23
-35.09
-21.70
-8.48
3.39
13.17
20.56
25.59
28.46
29.52
29.16
27.85
26.13
24.49
23.34
22.88
23.04
23.51
23.90
23.87
23.32
22.41
21.41
20.54
19.78
18.81
17.22
14.65
10.97
6.37
1.28
-3.80
-8.46
-12.51
-16.05
-19.40
-23.01
-27.34
-32.65
-38.95
-45.81
-52.31
-57.18
-59.00
-56.61
-49.63
-38.59
-24.93
-10.53
2.81
13.96
22.54
28.78
33.13
35.89
37.14
36.86
35.21
32.60
29.70
27.20
25.56
24.87
24.83
24.94
24.73
23.99
22.79
21.43
20.16
19.03
17.84
16.18
13.67
10.15
5.72
0.75
-4.35
-9.27
-13.86
-18.15
-22.28
-26.42
-30.85
-35.84
-41.68
-48.36
-55.46
-61.98
-66.48
-67.47
-63.86
-55.45
-43.03
-28.20
-12.82
1.51
13.84
23.88
31.76
37.68
41.66
43.59
43.40
41.34
38.03
34.37
31.22
29.18
28.34
28.46
29.10
29.77
30.15
29.99
29.18
27.70
25.60
22.98
19.95
16.57
12.87
8.89
4.69
0.38
-3.95
-8.21
-12.40
-16.55
-20.74
-25.08
-29.68
-34.75
-40.47
-46.87
-53.61
-59.87
-64.37
-65.70
-62.80
-55.35
-44.00
-30.15
-15.61
-2.06
9.31
18.03
24.19
28.21
30.58
31.60
31.46
30.31
28.39
26.07
23.78
21.87
20.46
19.48
18.71
17.99
17.28
16.71
16.37
16.19
15.85
14.81
12.59
8.95
4.04
-1.59
-7.21
-12.20
-16.22
-19.40
-22.23
-25.37
-29.49
-34.96
-41.75
-49.20
-56.06
-60.68
-61.42
-57.14
-47.75
-34.21
-18.42
-2.50
11.73
23.26
31.87
37.87
41.70
43.64
43.85
42.50
39.98
36.91
34.03
31.91
30.76
30.33
30.10
29.53
28.31
26.50
24.45
22.54
20.96
19.58
17.93
15.44
11.68
6.59
0.55
-5.75
-11.63
-16.67
-20.93
-24.86
-29.11
-34.30
-40.77
-48.46
-56.79
-64.65
-70.54
-72.76
-69.90
-61.31
-47.48
-30.07
-11.52
5.66
19.66
29.76
36.30
40.17
42.25
43.02
42.54
40.81
38.04
34.84
32.06
30.42
30.13
30.85
31.85
32.41
32.14
31.07
29.51
27.88
26.39
25.00
23.47
21.42
18.55
14.74
10.01
4.63
-1.09
-6.76
-12.05
-16.71
-20.63
-23.96
-27.13
-30.75
-35.44
-41.56
-48.90
-56.56
-63.05
-66.61
-65.81
-59.97
-49.47
-35.65
-20.32
-5.34
7.91
18.62
26.57
31.87
34.75
35.53
34.63
32.62
30.13
27.81
26.09
25.11
24.74
24.73
24.75
24.59
24.16
23.46
22.61
21.68
20.64
19.34
17.50
14.83
11.19
6.66
1.57
-3.57
-8.28
-12.26
-15.52
-18.43
-21.58
-25.62
-31.03
-37.84
-45.47
-52.78
-58.22
-60.29
-57.94
-50.97
-40.05
-26.54
-12.08
1.77
13.87
23.60
30.78
35.50
38.02
38.66
37.75
35.75
33.14
30.50
28.29
26.80
26.00
25.63
25.27
24.59
23.50
22.13
20.75
19.56
18.50
17.27
15.41
12.56
8.59
3.71
-1.65
-6.97
-11.84
-16.04
-19.64
-22.92
-26.35
-30.48
-35.73
-42.23
-49.59
-56.74
-62.11
-64.03
-61.27
-53.48
-41.45
-26.88
-11.79
2.03
13.53
22.42
28.93
33.48
36.37
37.73
37.67
36.42
34.40
32.12
30.08
28.60
27.80
27.59
27.79
28.13
28.34
28.17
27.46
26.19
24.45
22.45
20.32
18.05
15.48
12.32
8.38
3.61
-1.73
-7.29
-12.62
-17.40
-21.50
-24.95
-27.96
-30.84
-34.01
-37.91
-42.94
-49.13
-55.94
-62.19
-66.23
-66.43
-61.74
-52.12
-38.59
-22.91
-7.01
7.50
19.63
29.02
35.69
39.84
41.73
41.68
40.06
37.40
34.23
31.09
28.41
26.49
25.43
25.17
25.53
26.16
26.71
26.84
26.32
25.05
23.11
20.67
17.93
14.99
11.81
8.28
4.28
-0.14
-4.79
-9.39
-13.63
-17.38
-20.72
-23.93
-27.36
-31.30
-35.96
-41.37
-47.30
-53.23
-58.30
-61.40
-61.43
-57.62
-49.85
-38.78
-25.74
-12.32
0.08
10.49
18.58
24.38
28.13
30.05
30.31
29.11
26.80
23.93
21.13
18.94
17.66
17.24
17.38
17.69
17.87
17.79
17.53
17.16
16.72
16.04
14.88
12.96
10.17
6.60
2.53
-1.72
-5.90
-9.94
-13.89
-17.96
-22.31
-27.12
-32.48
-38.39
-44.58
-50.42
-54.80
-56.38
-53.96
-46.97
-35.85
-21.95
-7.21
6.49
17.81
26.17
31.65
34.67
35.70
35.09
33.19
30.45
27.45
24.81
23.04
22.37
22.63
23.36
23.92
23.77
22.65
20.67
18.26
15.88
13.87
12.20
10.55
8.41
5.41
1.50
-3.06
-7.78
-12.24
-16.20
-19.70
-22.92
-26.13
-29.63
-33.76
-38.83
-44.94
-51.71
-58.07
-62.42
-63.03
-58.71
-49.32
-35.92
-20.47
-5.15
8.31
19.01
26.86
32.26
35.72
37.62
38.18
37.58
36.09
34.10
32.11
30.57
29.74
29.64
30.01
30.50
30.76
30.64
30.11
29.23
28.03
26.46
24.38
21.78
18.73
15.45
12.16
8.96
5.77
2.36
-1.48
-5.79
-10.39
-14.95
-19.14
-22.83
-26.06
-29.16
-32.56
-36.73
-41.98
-48.28
-55.13
-61.53
-66.12
-67.47
-64.46
-56.74
-44.87
-30.24
-14.76
-0.23
11.99
21.30
27.73
31.68
33.62
33.94
32.97
31.12
28.91
26.95
25.71
25.29
25.43
25.61
25.35
24.46
23.07
21.53
20.19
19.15
18.27
17.24
15.72
13.46
10.36
6.43
1.81
-3.23
-8.33
-13.09
-17.24
-20.77
-23.92
-27.18
-31.05
-35.91
-41.82
-48.44
-54.97
-60.24
-62.96
-61.97
-56.69
-47.32
-34.87
-20.91
-7.10
5.23
15.35
23.12
28.73
32.45
34.47
34.96
34.15
32.44
30.38
28.53
27.30
26.74
26.61
26.48
25.96
24.87
23.37
21.81
20.55
19.76
19.23
18.39
16.55
13.26
8.49
2.73
-3.27
-8.72
-13.20
-16.70
-19.59
-22.44
-25.86
-30.33
-36.10
-43.00
-50.34
-56.90
-61.08
-61.44
-57.13
-48.28
-35.95
-21.76
-7.44
5.65
16.69
25.36
31.68
35.82
38.06
38.75
38.29
37.11
35.59
33.99
32.48
31.18
30.17
29.52
29.29
29.45
29.87
30.29
30.39
29.88
28.59
26.57
24.02
21.22
18.37
15.51
12.47
8.99
4.85
0.03
-5.30
-10.75
-15.93
-20.50
-24.33
-27.48
-30.24
-33.06
-36.45
-40.89
-46.60
-53.29
-59.96
-65.03
-66.67
-63.50
-55.09
-42.28
-26.87
-11.11
3.12
14.75
23.53
29.83
34.10
36.64
37.60
37.11
35.51
33.39
31.41
30.03
29.38
29.30
29.47
29.64
29.75
29.88
30.10
30.34
30.30
29.58
27.84
24.97
21.17
16.88
12.55
8.48
4.72
1.06
-2.80
-7.07
-11.79
-16.73
-21.58
-26.05
-30.04
-33.70
-37.29
-41.17
-45.64
-50.85
-56.57
-62.11
-66.30
-67.70
-65.04
-57.78
-46.35
-32.16
-17.11
-3.02
8.87
18.12
24.89
29.59
32.59
34.17
34.49
33.75
32.26
30.38
28.52
27.07
26.31
26.35
27.09
28.20
29.20
29.61
29.17
27.86
25.91
23.61
21.13
18.41
15.18
11.17
6.31
0.83
-4.78
-9.95
-14.35
-17.93
-21.02
-24.13
-27.76
-32.25
-37.66
-43.78
-50.02
-55.48
-58.93
-59.14
-55.18
-46.87
-34.91
-20.80
-6.33
6.89
17.79
25.98
31.60
35.06
36.74
37.00
36.13
34.49
32.47
30.54
29.04
28.16
27.84
27.86
27.95
27.91
27.64
27.12
26.38
25.39
24.04
22.22
19.86
17.02
13.86
10.57
7.20
3.72
-0.00
-4.10
-8.55
-13.20
-17.79
-22.09
-25.96
-29.42
-32.68
-36.10
-40.11
-45.09
-51.11
-57.72
-63.76
-67.54
-67.31
-61.85
-51.11
-36.25
-19.38
-2.85
11.45
22.50
30.17
34.92
37.41
38.18
37.63
36.07
33.92
31.65
29.75
28.50
27.94
27.82
27.75
27.43
26.72
25.70
24.54
23.38
22.21
20.94
19.43
17.60
15.46
13.03
10.31
7.18
3.55
-0.62
-5.21
-10.03
-14.76
-19.12
-23.00
-26.46
-29.76
-33.29
-37.46
-42.58
-48.65
-55.15
-61.04
-64.90
-65.27
-61.17
-52.46
-39.98
-25.37
-10.58
2.71
13.43
21.28
26.50
29.60
31.02
31.07
30.01
28.21
26.12
24.27
23.06
22.58
22.60
22.75
22.62
22.10
21.33
20.58
20.07
19.74
19.24
18.06
15.79
12.25
7.62
2.34
-3.09
-8.20
-12.75
-16.74
-20.32
-23.79
-27.49
-31.79
-36.91
-42.86
-49.17
-54.85
-58.53
-58.76
-54.56
-45.85
-33.57
-19.41
-5.29
7.27
17.50
25.33
31.09
35.12
37.54
38.32
37.48
35.30
32.35
29.33
26.87
25.33
24.74
24.85
25.28
25.70
25.85
25.63
25.05
24.08
22.69
20.85
18.48
15.60
12.24
8.47
4.44
0.25
-4.01
-8.24
-12.37
-16.34
-20.18
-23.99
-28.01
-32.56
-37.97
-44.40
-51.63
-58.89
-64.84
-67.79
-66.25
-59.46
-47.78
-32.64
-16.08
-0.12
13.71
24.62
32.45
37.41
39.92
40.48
39.69
38.16
36.44
34.93
33.82
33.15
32.85
32.81
32.91
33.04
33.08
32.91
32.48
31.72
30.51
28.70
26.12
22.76
18.82
14.64
10.55
6.74
3.13
-0.55
-4.55
-8.95
-13.60
-18.16
-22.34
-26.05
-29.50
-33.06
-37.16
-42.12
-47.96
-54.29
-60.22
-64.40
-65.33
-61.85
-53.58
-41.24
-26.42
-11.21
2.52
13.56
21.55
26.81
29.91
31.34
31.46
30.50
28.73
26.55
24.40
22.68
21.57
21.03
20.80
20.60
20.25
19.81
19.49
19.54
19.94
20.37
20.22
18.80
15.64
10.72
4.50
-2.27
-8.74
-14.29
-18.74
-22.29
-25.47
-28.83
-32.86
-37.77
-43.41
-49.22
-54.28
-57.38
-57.36
-53.42
-45.44
-34.09
-20.70
-6.91
5.78
16.40
24.56
30.38
34.19
36.38
37.17
36.79
35.45
33.48
31.32
29.44
28.20
27.74
27.91
28.33
28.55
28.23
27.29
25.91
24.37
22.91
21.56
20.05
17.91
14.73
10.35
4.96
-0.91
-6.67
-11.79
-16.08
-19.66
-22.90
-26.28
-30.24
-35.17
-41.24
-48.27
-55.61
-62.04
-65.98
-65.88
-60.81
-50.88
-37.22
-21.71
-6.32
7.42
18.61
27.06
32.91
36.46
38.03
37.99
36.82
35.11
33.39
32.08
31.37
31.19
31.39
31.70
31.92
31.86
31.38
30.45
29.16
27.66
26.09
24.49
22.77
20.75
18.23
15.06
11.23
6.84
2.12
-2.75
-7.56
-12.21
-16.70
-21.09
-25.51
-30.17
-35.29
-41.03
-47.39
-54.00
-60.01
-64.15
-64.99
-61.43
-53.17
-40.89
-26.16
-10.91
3.10
14.73
23.60
29.85
33.85
35.96
36.39
35.37
33.20
30.47
27.83
25.79
24.54
23.90
23.45
22.80
21.86
20.80
19.90
19.29
18.81
18.07
16.60
14.10
10.55
6.19
1.39
-3.51
-8.24
-12.63
-16.68
-20.49
-24.27
-28.36
-33.09
-38.71
-45.23
-52.26
-58.91
-63.89
-65.76
-63.36
-56.25
-44.95
-30.83
-15.70
-1.30
11.10
20.90
28.00
32.62
35.04
35.48
34.22
31.69
28.55
25.59
23.51
22.74
23.14
24.14
24.93
24.81
23.56
21.42
19.08
17.13
15.85
14.93
13.69
11.47
7.97
3.41
-1.61
-6.40
-10.60
-14.20
-17.57
-21.11
-25.11
-29.71
-34.92
-40.71
-46.80
-52.59
-56.95
-58.44
-55.78
-48.41
-36.90
-22.80
-8.21
4.99
15.67
23.56
29.03
32.63
34.80
35.75
35.64
34.70
33.29
31.81
30.62
29.88
29.58
29.59
29.75
29.87
29.83
29.48
28.75
27.63
26.16
24.49
22.67
20.73
18.56
16.04
13.01
9.40
5.22
0.57
-4.32
-9.24
-13.94
-18.27
-22.16
-25.68
-29.00
-32.48
-36.55
-41.50
-47.31
-53.39
-58.54
-61.24
-60.10
-54.33
-44.14
-30.71
-15.82
-1.41
11.06
20.76
27.55
31.78
33.95
34.62
34.21
33.01
31.28
29.26
27.22
25.46
24.18
23.44
23.14
23.02
22.83
22.37
21.59
20.52
19.26
17.84
16.21
14.23
11.76
8.71
5.13
1.19
-2.88
-6.88
-10.71
-14.43
-18.18
-22.13
-26.40
-31.04
-36.11
-41.62
-47.49
-53.40
-58.64
-62.08
-62.49
-58.92
-51.17
-39.92
-26.59
-12.89
-0.30
10.26
18.49
24.51
28.55
30.82
31.43
30.58
28.67
26.32
24.19
22.75
22.11
22.01
22.00
21.69
20.97
19.99
19.07
18.45
18.12
17.78
16.92
15.08
12.03
7.91
3.15
-1.68
-6.10
-9.90
-13.24
-16.55
-20.32
-25.01
-30.82
-37.62
-44.85
-51.50
-56.20
-57.51
-54.44
-46.75
-35.24
-21.48
-7.38
5.42
15.92
23.83
29.36
32.90
34.77
35.20
34.38
32.60
30.33
28.04
26.19
25.03
24.57
24.60
24.77
24.74
24.31
23.41
22.14
20.68
19.10
17.41
15.44
12.99
9.91
6.22
2.05
-2.38
-6.85
-11.26
-15.53
-19.67
-23.71
-27.70
-31.77
-36.16
-41.15
-46.90
-53.21
-59.34
-64.05
-65.86
-63.54
-56.53
-45.25
-30.99
-15.59
-0.89
11.74
21.65
28.82
33.69
36.82
38.63
39.39
39.20
38.15
36.45
34.45
32.60
31.24
30.53
30.34
30.40
30.40
30.08
29.39
28.33
26.97
25.30
23.22
20.65
17.52
13.91
9.90
5.64
1.23
-3.25
-7.76
-12.20
-16.47
-20.46
-24.13
-27.56
-30.99
-34.77
-39.26
-44.65
-50.78
-56.98
-62.09
-64.70
-63.54
-57.91
-48.01
-34.90
-20.24
-5.86
6.74
16.68
23.73
28.19
30.63
31.58
31.44
30.46
28.83
26.83
24.83
23.24
22.25
21.85
21.69
21.36
20.58
19.33
17.88
16.60
15.66
14.95
14.10
12.60
10.10
6.55
2.21
-2.46
-7.00
-11.10
-14.71
-18.03
-21.40
-25.19
-29.65
-34.90
-40.83
-47.06
-52.81
-56.95
-58.17
-55.35
-48.01
-36.60
-22.48
-7.58
6.21
17.51
25.79
31.23
34.38
35.81
35.87
34.77
32.76
30.29
28.04
26.65
26.45
27.24
28.38
29.08
28.78
27.39
25.23
22.89
20.81
19.11
17.60
15.88
13.60
10.58
6.83
2.52
-2.09
-6.76
-11.27
-15.50
-19.36
-22.87
-26.13
-29.36
-32.95
-37.30
-42.66
-48.88
-55.17
-60.19
-62.31
-60.21
-53.32
-42.12
-28.01
-12.90
1.40
13.54
22.90
29.51
33.83
36.49
37.97
38.51
38.21
37.06
35.22
33.05
31.07
29.75
29.30
29.54
30.08
30.48
30.50
30.13
29.53
28.77
27.78
26.37
24.40
21.88
19.02
16.06
13.12
10.10
6.71
2.63
-2.26
-7.80
-13.53
-18.85
-23.30
-26.69
-29.31
-31.81
-35.05
-39.71
-46.00
-53.38
-60.60
-65.94
-67.73
-64.82
-56.97
-44.94
-30.29
-14.95
-0.70
11.14
20.01
25.96
29.48
31.20
31.70
31.34
30.34
28.83
26.98
25.00
23.19
21.79
20.96
20.72
20.94
21.37
21.68
21.57
20.83
19.40
17.36
14.85
12.05
8.99
5.68
2.02
-2.05
-6.42
-10.88
-15.14
-19.01
-22.46
-25.62
-28.72
-32.04
-35.82
-40.24
-45.30
-50.64
-55.45
-58.51
-58.49
-54.36
-45.89
-33.78
-19.56
-5.07
8.06
18.83
26.88
32.44
35.94
37.81
38.39
37.93
36.61
34.69
32.42
30.16
28.24
26.94
26.42
26.64
27.34
28.09
28.45
28.08
26.86
24.88
22.42
19.68
16.74
13.47
9.70
5.33
0.50
-4.48
-9.25
-13.57
-17.44
-21.01
-24.53
-28.19
-32.12
-36.51
-41.50
-47.20
-53.36
-59.20
-63.43
-64.53
-61.31
-53.40
-41.44
-26.95
-11.75
2.46
14.56
24.07
30.96
35.43
37.85
38.61
38.19
37.10
35.80
34.62
33.73
33.16
32.79
32.49
32.15
31.71
31.25
30.84
30.56
30.37
30.09
29.42
28.05
25.77
22.59
18.76
14.59
10.39
6.30
2.21
-2.04
-6.61
-11.48
-16.44
-21.12
-25.26
-28.81
-32.02
-35.37
-39.37
-44.38
-50.40
-56.95
-63.06
-67.41
-68.55
-65.37
-57.47
-45.42
-30.76
-15.47
-1.43
10.13
18.81
24.92
28.98
31.41
32.42
32.13
30.74
28.69
26.54
24.77
23.65
23.17
23.21
23.58
24.13
24.71
25.12
25.15
24.62
23.44
21.65
19.37
16.68
13.67
10.30
6.60
2.63
-1.47
-5.55
-9.51
-13.38
-17.25
-21.24
-25.44
-29.89
-34.66
-39.83
-45.41
-51.21
-56.60
-60.51
-61.63
-58.84
-51.64
-40.49
-26.69
-11.97
1.99
14.04
23.60
30.64
35.34
37.95
38.74
38.01
36.17
33.72
31.22
29.13
27.75
27.08
26.89
26.74
26.22
25.05
23.26
21.13
19.05
17.30
15.88
14.52
12.76
10.26
6.83
2.58
-2.15
-6.96
-11.52
-15.65
-19.39
-22.95
-26.62
-30.65
-35.28
-40.60
-46.58
-52.96
-59.08
-63.92
-66.16
-64.56
-58.41
-47.90
-34.17
-19.02
-4.34
8.42
18.54
25.98
31.08
34.27
35.89
36.19
35.44
33.98
32.25
30.67
29.54
28.93
28.75
28.83
29.00
29.17
29.29
29.27
28.96
28.13
26.66
24.51
21.86
18.95
15.99
13.02
9.92
6.43
2.35
-2.37
-7.52
-12.77
-17.73
-22.09
-25.77
-28.94
-32.05
-35.68
-40.43
-46.60
-54.03
-61.84
-68.53
-72.28
-71.45
-65.23
-53.96
-39.11
-22.85
-7.33
5.94
16.31
23.88
29.11
32.47
34.24
34.57
33.59
31.63
29.17
26.75
24.83
23.66
23.26
23.42
23.81
24.09
24.00
23.45
22.53
21.39
20.12
18.66
16.78
14.21
10.76
6.46
1.55
-3.58
-8.51
-12.98
-16.96
-20.65
-24.38
-28.53
-33.35
-38.94
-45.13
-51.45
-57.15
-61.18
-62.43
-59.92
-53.17
-42.39
-28.63
-13.55
1.03
13.59
23.26
29.89
33.87
35.81
36.30
35.71
34.35
32.49
30.51
28.77
27.58
27.02
26.99
27.27
27.66
28.02
28.29
28.37
28.07
27.12
25.32
22.72
19.56
16.21
12.98
9.95
6.92
3.60
-0.24
-4.61
-9.33
-14.06
-18.57
-22.74
-26.63
-30.46
-34.52
-39.18
-44.76
-51.27
-58.17
-64.27
-67.87
-67.26
-61.40
-50.38
-35.48
-18.77
-2.43
11.89
23.36
31.86
37.64
41.06
42.45
42.17
40.75
38.88
37.21
36.20
35.96
36.27
36.79
37.16
37.20
36.90
36.38
35.78
35.11
34.32
33.26
31.74
29.64
26.93
23.74
20.29
16.83
13.50
10.26
6.92
3.24
-0.99
-5.77
-10.87
-15.90
-20.42
-24.15
-27.05
-29.45
-31.97
-35.31
-40.01
-46.20
-53.41
-60.53
-65.97
-68.02
-65.41
-57.70
-45.53
-30.50
-14.65
0.07
12.34
21.60
27.95
31.85
33.82
34.31
33.73
32.42
30.79
29.24
28.03
27.30
26.99
26.95
26.97
26.92
26.75
26.48
26.15
25.75
25.15
24.15
22.53
20.14
16.96
13.09
8.72
4.02
-0.81
-5.62
-10.26
-14.63
-18.65
-22.30
-25.64
-28.82
-32.10
-35.80
-40.23
-45.48
-51.19
-56.47
-60.01
-60.35
-56.47
-48.15
-36.14
-21.97
-7.50
5.64
16.38
24.37
29.74
32.92
34.37
34.49
33.65
32.20
30.54
29.04
27.95
27.40
27.31
27.54
27.84
28.05
28.02
27.71
27.18
26.50
25.63
24.48
22.81
20.38
17.07
12.89
8.03
2.77
-2.58
-7.79
-12.67
-17.13
-21.13
-24.77
-28.30
-32.07
-36.43
-41.58
-47.26
-52.74
-56.79
-58.07
-55.46
-48.59
-37.99
-24.98
-11.26
1.62
12.67
21.51
28.17
32.84
35.61
36.57
35.91
34.09
31.80
29.72
28.33
27.71
27.64
27.74
27.76
27.59
27.29
26.92
26.42
25.63
24.37
22.50
20.07
17.31
14.44
11.63
8.84
5.86
2.46
-1.52
-5.99
-10.69
-15.28
-19.47
-23.18
-26.52
-29.79
-33.30
-37.31
-41.97
-47.19
-52.54
-57.24
-60.13
-59.99
-55.88
-47.56
-35.66
-21.62
-7.26
5.76
16.29
23.93
28.85
31.58
32.71
32.74
32.02
30.79
29.27
27.65
26.16
24.96
24.14
23.69
23.54
23.60
23.77
23.96
24.02
23.74
22.88
21.24
18.80
15.75
12.41
9.08
5.89
2.74
-0.56
-4.17
-8.08
-12.10
-16.00
-19.60
-22.91
-26.05
-29.25
-32.80
-36.98
-41.95
-47.64
-53.59
-58.86
-62.13
-62.01
-57.53
-48.59
-36.11
-21.89
-7.95
4.04
13.22
19.59
23.73
26.34
27.83
28.28
27.62
25.95
23.71
21.57
20.19
19.87
20.47
21.53
22.50
23.01
22.94
22.38
21.47
20.29
18.83
17.03
14.82
12.12
8.91
5.17
1.00
-3.40
-7.75
-11.77
-15.38
-18.68
-21.93
-25.41
-29.36
-33.94
-39.14
-44.77
-50.27
-54.75
-57.00
-55.86
-50.63
-41.42
-29.27
-15.82
-2.78
8.54
17.55
24.24
28.95
32.00
33.56
33.78
32.84
31.15
29.27
27.72
26.81
26.49
26.50
26.52
26.37
26.12
25.93
25.91
25.94
25.66
24.69
22.81
20.09
16.84
13.48
10.26
7.27
4.39
1.46
-1.61
-4.82
-8.15
-11.55
-15.01
-18.52
-22.02
-25.49
-28.97
-32.68
-36.94
-42.01
-47.81
-53.66
-58.31
-60.16
-57.86
-50.82
-39.53
-25.50
-10.70
3.07
14.63
23.58
30.13
34.60
37.19
37.93
36.87
34.31
30.95
27.64
25.12
23.76
23.44
23.75
24.24
24.64
24.87
25.00
25.02
24.80
24.14
22.80
20.71
17.94
14.72
11.34
7.96
4.66
1.30
-2.24
-6.03
-10.01
-14.01
-17.81
-21.30
-24.52
-27.62
-30.83
-34.39
-38.48
-43.17
-48.31
-53.39
-57.45
-59.22
-57.51
-51.68
-41.99
-29.59
-16.16
-3.39
7.50
15.96
21.98
25.86
27.90
28.36
27.47
25.55
23.07
20.59
18.56
17.26
16.68
16.59
16.68
16.62
16.25
15.58
14.73
13.85
13.02
12.15
10.98
9.21
6.59
3.09
-1.05
-5.45
-9.68
-13.44
-16.72
-19.76
-22.98
-26.79
-31.44
-36.86
-42.56
-47.60
-50.81
-51.02
-47.48
-40.11
-29.64
-17.40
-4.92
6.43
15.80
22.86
27.69
30.53
31.70
31.48
30.19
28.21
25.99
23.96
22.48
21.72
21.63
21.99
22.43
22.59
22.19
21.15
19.60
17.79
15.95
14.21
12.48
10.49
7.99
4.79
0.92
-3.35
-7.69
-11.82
-15.61
-19.11
-22.51
-25.98
-29.77
-34.04
-38.86
-44.09
-49.20
-53.22
-54.91
-53.11
-47.19
-37.36
-24.72
-10.91
2.31
13.62
22.32
28.33
31.95
33.59
33.70
32.62
30.76
28.54
26.42
24.80
23.83
23.53
23.73
24.22
24.78
25.26
25.49
25.37
24.83
23.81
22.36
20.54
18.40
15.89
12.91
9.37
5.30
0.84
-3.75
-8.23
-12.41
-16.25
-19.84
-23.37
-27.11
-31.35
-36.34
-42.06
-48.16
-53.79
-57.73
-58.71
-55.81
-48.83
-38.36
-25.70
-12.42
0.02
10.57
18.72
24.41
27.86
29.44
29.47
28.31
26.34
23.99
21.74
20.03
19.12
18.99
19.33
19.70
19.69
19.07
17.90
16.42
14.91
13.54
12.26
10.86
9.00
6.42
3.04
-0.97
-5.23
-9.33
-12.95
-16.06
-18.93
-22.01
-25.75
-30.48
-36.24
-42.67
-48.96
-53.91
-56.15
-54.52
-48.54
-38.66
-26.20
-12.97
-0.71
9.45
17.15
22.69
26.65
29.50
31.47
32.50
32.49
31.48
29.71
27.59
25.58
24.05
23.19
22.99
23.28
23.81
24.30
24.50
24.26
23.48
22.14
20.30
18.02
15.30
12.12
8.46
4.38
0.05
-4.26
-8.28
-11.91
-15.25
-18.67
-22.65
-27.60
-33.69
-40.66
-47.76
-53.89
-57.71
-58.11
-54.37
-46.55
-35.44
-22.37
-8.89
3.64
14.30
22.68
28.72
32.62
34.65
35.16
34.50
33.15
31.62
30.37
29.69
29.62
29.97
30.44
30.74
30.76
30.52
30.10
29.58
28.95
28.06
26.76
24.92
22.51
19.66
16.51
13.23
9.86
6.34
2.54
-1.63
-6.17
-10.88
-15.50
-19.75
-23.52
-26.93
-30.34
-34.19
-38.84
-44.42
-50.60
-56.62
-61.27
-63.20
-61.27
-54.99
-44.72
-31.68
-17.57
-4.14
7.29
16.13
22.41
26.58
29.19
30.62
31.05
30.48
28.98
26.78
24.32
22.14
20.70
20.21
20.56
21.39
22.23
22.75
22.81
22.46
21.81
20.91
19.68
17.90
15.37
11.98
7.78
3.02
-1.93
-6.68
-10.91
-14.50
-17.52
-20.27
-23.10
-26.39
-30.40
-35.24
-40.77
-46.53
-51.70
-55.10
-55.44
-51.73
-43.67
-31.95
-18.13
-4.16
8.28
18.20
25.50
30.60
34.06
36.24
37.19
36.89
35.43
33.20
30.79
28.80
27.58
27.18
27.31
27.54
27.46
26.84
25.67
24.12
22.42
20.73
19.06
17.26
15.17
12.64
9.62
6.17
2.41
-1.56
-5.62
-9.63
-13.48
-17.07
-20.39
-23.56
-26.87
-30.70
-35.42
-41.12
-47.47
-53.59
-58.08
-59.47
-56.62
-49.21
-37.93
-24.31
-10.27
2.51
13.00
20.94
26.63
30.55
33.04
34.24
34.18
33.04
31.22
29.31
27.89
27.25
27.33
27.72
28.01
27.94
27.55
27.07
26.71
26.43
25.93
24.86
22.96
20.28
17.09
13.76
10.55
7.49
4.39
1.04
-2.72
-6.84
-11.14
-15.32
-19.14
-22.50
-25.47
-28.25
-31.06
-34.16
-37.79
-42.12
-47.20
-52.77
-58.07
-61.94
-62.98
-60.07
-52.86
-41.99
-28.92
-15.38
-2.84
7.86
16.48
23.08
27.71
30.37
31.00
29.80
27.28
24.25
21.57
19.86
19.35
19.83
20.90
22.13
23.15
23.80
23.95
23.55
22.62
21.24
19.59
17.83
16.03
14.07
11.66
8.51
4.54
-0.01
-4.60
-8.71
-12.04
-14.66
-16.98
-19.48
-22.57
-26.50
-31.37
-37.07
-43.20
-48.96
-53.12
-54.33
-51.56
-44.51
-33.92
-21.28
-8.43
3.15
12.61
19.84
25.16
28.95
31.42
32.57
32.36
30.86
28.44
25.70
23.30
21.77
21.34
21.87
22.92
24.02
24.72
24.83
24.30
23.23
21.73
19.89
17.77
15.44
12.98
10.48
7.93
5.24
2.19
-1.35
-5.41
-9.79
-14.15
-18.16
-21.58
-24.45
-27.06
-29.92
-33.61
-38.55
-44.65
-51.18
-56.72
-59.52
-58.12
-51.88
-41.31
-27.95
-13.75
-0.51
10.64
19.29
25.57
29.80
32.31
33.36
33.17
32.02
30.21
28.06
25.87
23.90
22.33
21.32
20.87
20.94
21.35
21.90
22.36
22.55
22.30
21.48
19.99
17.80
14.96
11.67
8.14
4.55
0.92
-2.83
-6.84
-11.13
-15.53
-19.73
-23.43
-26.50
-29.14
-31.80
-35.04
-39.29
-44.64
-50.62
-56.25
-60.16
-60.99
-57.74
-50.27
-39.36
-26.59
-13.81
-2.54
6.45
13.17
18.13
21.86
24.70
26.60
27.42
27.13
25.98
24.51
23.29
22.69
22.75
23.15
23.45
23.28
22.58
21.53
20.41
19.44
18.61
17.72
16.45
14.51
11.78
8.34
4.45
0.39
-3.59
-7.35
-10.90
-14.38
-17.93
-21.77
-26.04
-30.90
-36.35
-42.21
-47.88
-52.35
-54.41
-52.94
-47.44
-38.22
-26.38
-13.49
-1.03
9.88
18.63
25.06
29.31
31.67
32.48
32.16
31.09
29.67
28.19
26.89
25.91
25.35
25.20
25.34
25.55
25.56
25.09
24.03
22.40
20.35
18.11
15.83
13.54
11.07
8.17
4.62
0.38
-4.31
-9.01
-13.27
-16.82
-19.76
-22.43
-25.35
-28.96
-33.52
-38.93
-44.72
-49.97
-53.52
-54.16
-51.04
-43.96
-33.54
-21.13
-8.41
3.12
12.52
19.51
24.33
27.42
29.12
29.64
29.09
27.68
25.76
23.85
22.44
21.85
22.04
22.69
23.32
23.51
23.11
22.18
20.94
19.56
18.09
16.45
14.48
12.04
9.10
5.71
1.96
-2.03
-6.15
-10.27
-14.24
-17.97
-21.51
-25.02
-28.73
-32.90
-37.63
-42.87
-48.32
-53.35
-57.06
-58.29
-56.04
-49.80
-39.90
-27.48
-14.20
-1.69
8.91
17.19
23.24
27.41
29.93
30.90
30.40
28.70
26.37
24.06
22.37
21.58
21.58
22.03
22.54
22.77
22.61
22.07
21.26
20.23
18.96
17.33
15.16
12.29
8.62
4.23
-0.62
-5.53
-10.14
-14.25
-17.96
-21.71
-26.04
-31.39
-37.85
-44.97
-51.85
-57.25
-59.91
-58.86
-53.68
-44.66
-32.73
-19.24
-5.70
6.61
16.83
24.58
29.92
33.13
34.59
34.66
33.69
32.06
30.18
28.49
27.30
26.80
26.90
27.37
27.85
28.01
27.69
26.83
25.58
24.10
22.53
20.84
18.88
16.33
12.92
8.59
3.53
-1.77
-6.81
-11.19
-14.88
-18.12
-21.33
-24.88
-29.06
-33.98
-39.69
-46.13
-52.94
-59.29
-63.83
-65.01
-61.56
-53.08
-40.36
-25.17
-9.68
4.31
15.75
24.47
30.80
35.18
37.88
39.04
38.86
37.73
36.21
34.85
34.03
33.83
34.14
34.69
35.22
35.49
35.32
34.57
33.19
31.26
28.92
26.37
23.71
20.93
17.94
14.65
11.04
7.11
2.90
-1.62
-6.44
-11.49
-16.54
-21.31
-25.58
-29.33
-32.84
-36.62
-41.16
-46.66
-52.79
-58.61
-62.75
-63.79
-60.67
-53.09
-41.67
-27.78
-13.18
0.46
11.93
20.69
26.67
30.15
31.53
31.24
29.77
27.66
25.44
23.55
22.23
21.53
21.34
21.48
21.75
21.93
21.88
21.52
20.83
19.87
18.66
17.09
14.94
11.89
7.84
2.92
-2.36
-7.37
-11.57
-14.86
-17.58
-20.39
-24.10
-29.27
-35.94
-43.53
-50.83
-56.25
-58.29
-55.97
-49.11
-38.45
-25.37
-11.53
1.55
12.78
21.66
28.14
32.50
35.06
36.07
35.68
34.05
31.56
28.73
26.28
24.78
24.44
25.03
25.94
26.58
26.63
26.18
25.54
24.98
24.44
23.56
21.85
18.94
14.79
9.68
4.14
-1.38
-6.49
-11.06
-15.09
-18.69
-22.09
-25.60
-29.64
-34.68
-41.00
-48.40
-56.01
-62.36
-65.68
-64.47
-58.10
-47.00
-32.60
-16.90
-1.84
11.15
21.34
28.71
33.62
36.58
38.05
38.35
37.70
36.33
34.51
32.56
30.85
29.66
29.18
29.39
30.14
31.10
31.95
32.34
32.07
31.06
29.40
27.19
24.52
21.37
17.63
13.23
8.18
2.66
-2.99
-8.42
-13.36
-17.72
-21.62
-25.34
-29.23
-33.65
-38.88
-45.01
-51.83
-58.69
-64.49
-67.86
-67.52
-62.72
-53.60
-41.17
-27.05
-12.98
-0.30
10.28
18.60
24.80
29.04
31.33
31.72
30.43
28.04
25.35
23.19
22.07
22.03
22.71
23.50
23.88
23.62
22.80
21.73
20.71
19.80
18.82
17.33
14.87
11.18
6.38
0.93
-4.50
-9.31
-13.20
-16.34
-19.23
-22.52
-26.76
-32.26
-38.94
-46.31
-53.48
-59.25
-62.22
-61.23
-55.69
-45.81
-32.76
-18.26
-4.16
8.09
17.82
25.04
30.19
33.76
35.99
36.82
36.18
34.22
31.45
28.68
26.72
26.01
26.38
27.22
27.74
27.34
25.96
24.00
22.07
20.62
19.69
18.83
17.30
14.46
10.04
4.36
-1.87
-7.84
-12.98
-17.15
-20.61
-23.81
-27.24
-31.22
-35.93
-41.42
-47.56
-53.86
-59.39
-62.80
-62.62
-57.84
-48.34
-35.05
-19.76
-4.52
8.97
19.76
27.70
33.21
36.86
39.11
40.25
40.38
39.63
38.23
36.51
34.85
33.62
33.07
33.26
34.06
35.10
35.94
36.19
35.63
34.24
32.16
29.56
26.61
23.37
19.88
16.14
12.21
8.13
3.89
-0.49
-5.03
-9.71
-14.45
-19.14
-23.66
-27.96
-32.14
-36.46
-41.33
-47.09
-53.75
-60.65
-66.45
-69.38
-67.88
-61.23
-49.92
-35.56
-20.28
-6.05
5.86
15.04
21.68
26.21
29.01
30.27
30.13
28.83
26.76
24.48
22.54
21.29
20.85
21.01
21.44
21.78
21.86
21.72
21.52
21.35
21.13
20.58
19.32
17.07
13.76
9.60
4.96
0.26
-4.19
-8.25
-11.96
-15.48
-19.13
-23.30
-28.36
-34.54
-41.69
-49.18
-55.81
-60.09
-60.61
-56.52
-47.87
-35.66
-21.54
-7.32
5.47
15.95
23.86
29.39
32.92
34.78
35.24
34.56
33.07
31.17
29.33
27.93
27.18
27.06
27.34
27.71
27.83
27.49
26.62
25.36
23.85
22.22
20.44
18.36
15.74
12.42
8.42
3.93
-0.69
-5.12
-9.23
-13.06
-16.81
-20.70
-24.79
-29.08
-33.53
-38.21
-43.33
-48.93
-54.65
-59.46
-61.81
-60.14
-53.51
-42.17
-27.51
-11.66
3.28
15.87
25.58
32.61
37.50
40.70
42.45
42.86
42.07
40.37
38.24
36.13
34.37
33.08
32.18
31.56
31.11
30.76
30.46
30.10
29.47
28.35
26.58
24.07
20.95
17.40
13.66
9.82
5.85
1.65
-2.92
-7.90
-13.15
-18.42
-23.36
-27.71
-31.35
-34.49
-37.55
-41.12
-45.73
-51.51
-57.99
-64.02
-67.95
-68.13
-63.44
-53.79
-40.26
-24.70
-9.19
4.58
15.66
23.82
29.33
32.54
33.80
33.45
31.89
29.70
27.49
25.78
24.84
24.62
24.84
25.13
25.19
24.85
24.15
23.26
22.41
21.69
20.99
19.88
17.84
14.44
9.64
3.86
-2.13
-7.54
-11.92
-15.32
-18.24
-21.35
-25.23
-30.16
-36.08
-42.63
-49.16
-54.79
-58.46
-59.07
-55.76
-48.22
-36.91
-23.00
-8.15
5.97
18.07
27.45
34.05
38.16
40.19
40.47
39.25
36.83
33.64
30.32
27.54
25.81
25.26
25.67
26.49
27.16
27.26
26.63
25.35
23.61
21.61
19.42
17.05
14.39
11.31
7.73
3.65
-0.82
-5.45
-10.01
-14.34
-18.35
-22.09
-25.67
-29.30
-33.29
-38.01
-43.75
-50.35
-57.05
-62.45
-64.86
-62.80
-55.65
-43.87
-28.96
-12.95
2.23
15.21
25.32
32.46
36.86
38.87
38.95
37.60
35.45
33.08
30.93
29.21
27.92
26.94
26.14
25.50
24.99
24.62
24.31
23.90
23.29
22.48
21.46
20.24
18.68
16.50
13.44
9.37
4.42
-1.00
-6.39
-11.31
-15.54
-19.11
-22.31
-25.46
-28.98
-33.14
-38.16
-44.05
-50.51
-56.83
-61.86
-64.21
-62.63
-56.52
-46.21
-32.92
-18.49
-4.70
7.10
16.33
22.96
27.27
29.51
29.87
28.57
26.06
23.01
20.21
18.31
17.57
17.79
18.46
19.02
19.09
18.64
17.90
17.16
16.55
15.91
14.83
12.89
9.85
5.79
1.11
-3.64
-8.01
-11.81
-15.17
-18.45
-22.05
-26.38
-31.62
-37.71
-44.15
-49.99
-53.92
-54.55
-50.97
-43.04
-31.62
-18.30
-4.84
7.30
17.33
25.10
30.75
34.46
36.26
36.19
34.46
31.58
28.33
25.47
23.57
22.77
22.80
23.16
23.32
22.92
21.92
20.57
19.20
18.04
17.05
15.86
13.96
10.95
6.74
1.67
-3.64
-8.53
-12.59
-15.82
-18.53
-21.24
-24.45
-28.54
-33.64
-39.56
-45.67
-50.94
-53.97
-53.38
-48.27
-38.60
-25.41
-10.46
4.19
16.89
26.79
33.85
38.54
41.39
42.74
42.74
41.52
39.37
36.79
34.31
32.32
30.93
29.93
29.00
27.86
26.38
24.65
22.81
21.02
19.33
17.65
15.75
13.34
10.20
6.21
1.48
-3.71
-8.96
-13.91
-18.38
-22.38
-26.15
-30.04
-34.44
-39.61
-45.63
-52.26
-58.84
-64.30
-67.30
-66.57
-61.34
-51.73
-38.81
-24.31
-10.16
2.16
11.93
19.15
24.21
27.50
29.17
29.24
27.75
25.04
21.78
18.73
16.52
15.41
15.26
15.66
16.10
16.20
15.83
15.04
13.97
12.76
11.37
9.64
7.27
4.04
-0.07
-4.81
-9.72
-14.34
-18.36
-21.78
-24.86
-27.98
-31.55
-35.89
-41.08
-46.93
-52.78
-57.56
-59.93
-58.66
-53.08
-43.38
-30.60
-16.40
-2.46
9.87
19.82
27.15
32.00
34.63
35.37
34.52
32.47
29.69
26.74
24.23
22.59
21.95
22.09
22.49
22.63
22.21
21.28
20.17
19.25
18.60
17.96
16.84
14.74
11.45
7.10
2.11
-3.02
-7.89
-12.30
-16.24
-19.81
-23.25
-26.89
-31.10
-36.15
-41.94
-47.90
-52.92
-55.54
-54.37
-48.68
-38.72
-25.71
-11.55
1.93
13.38
22.28
28.73
33.07
35.61
36.50
35.87
33.99
31.44
28.94
27.06
26.10
25.97
26.35
26.91
27.42
27.74
27.82
27.58
26.93
25.81
24.19
22.10
19.57
16.62
13.23
9.40
5.16
0.65
-3.89
-8.20
-12.04
-15.31
-18.12
-20.79
-23.76
-27.43
-32.03
-37.55
-43.72
-49.91
-55.20
-58.33
-58.04
-53.39
-44.27
-31.58
-17.05
-2.78
9.52
18.92
25.42
29.57
32.05
33.28
33.38
32.37
30.38
27.79
25.17
23.09
21.89
21.63
22.04
22.65
23.02
22.86
22.17
21.12
19.97
18.84
17.64
16.10
13.93
10.99
7.38
3.41
-0.63
-4.57
-8.40
-12.19
-15.92
-19.49
-22.75
-25.71
-28.64
-32.06
-36.51
-42.22
-48.77
-55.09
-59.58
-60.73
-57.53
-49.92
-38.74
-25.52
-11.91
0.66
11.33
19.72
25.84
29.86
31.99
32.46
31.55
29.71
27.43
25.26
23.63
22.76
22.61
22.89
23.20
23.14
22.57
21.56
20.42
19.42
18.65
17.89
16.69
14.61
11.47
7.38
2.78
-1.80
-5.99
-9.64
-12.90
-16.09
-19.53
-23.48
-28.13
-33.53
-39.56
-45.74
-51.24
-54.87
-55.43
-52.00
-44.43
-33.39
-20.24
-6.64
5.92
16.38
24.32
29.72
32.83
33.99
33.55
31.88
29.43
26.69
24.14
22.25
21.23
21.12
21.70
22.64
23.59
24.25
24.40
23.94
22.81
21.06
18.82
16.26
13.56
10.81
8.01
5.07
1.88
-1.55
-5.21
-8.95
-12.68
-16.32
-19.88
-23.36
-26.85
-30.54
-34.72
-39.65
-45.35
-51.28
-56.30
-58.93
-57.76
-52.10
-42.28
-29.59
-15.85
-2.80
8.40
17.29
23.94
28.69
31.83
33.57
34.07
33.56
32.37
30.91
29.51
28.46
27.85
27.62
27.58
27.53
27.30
26.85
26.21
25.46
24.58
23.47
22.00
20.07
17.68
14.98
12.10
9.06
5.77
2.04
-2.23
-6.96
-11.84
-16.44
-20.40
-23.56
-26.04
-28.23
-30.67
-33.90
-38.32
-43.92
-50.22
-56.12
-60.16
-60.87
-57.24
-49.11
-37.34
-23.56
-9.67
2.68
12.55
19.72
24.48
27.34
28.72
28.88
28.01
26.34
24.25
22.14
20.42
19.29
18.78
18.74
18.95
19.22
19.41
19.42
19.17
18.59
17.62
16.17
14.20
11.58
8.27
4.29
-0.20
-4.87
-9.36
-13.40
-16.95
-20.13
-23.27
-26.68
-30.64
-35.30
-40.59
-46.12
-51.12
-54.40
-54.66
-50.91
-42.90
-31.39
-17.93
-4.40
7.66
17.44
24.91
30.45
34.38
36.78
37.49
36.42
33.88
30.61
27.52
25.38
24.46
24.48
24.91
25.24
25.26
25.06
24.83
24.61
24.28
23.51
21.99
19.62
16.48
12.85
8.96
4.99
0.95
-3.22
-7.55
-12.01
-16.46
-20.76
-24.78
-28.53
-32.14
-35.90
-40.21
-45.37
-51.37
-57.62
-62.98
-65.95
-65.12
-59.66
-49.66
-36.17
-20.91
-5.77
7.70
18.53
26.45
31.62
34.48
35.54
35.29
34.15
32.56
30.92
29.64
28.98
29.02
29.60
30.38
31.05
31.38
31.36
31.07
30.59
29.88
28.80
27.14
24.87
22.09
19.08
16.12
13.26
10.31
6.90
2.75
-2.18
-7.61
-13.06
-18.06
-22.36
-26.02
-29.38
-32.94
-37.21
-42.55
-48.98
-56.01
-62.58
-67.16
-68.10
-64.21
-55.24
-42.10
-26.62
-10.95
3.07
14.33
22.58
28.09
31.33
32.70
32.46
30.87
28.27
25.26
22.47
20.44
19.46
19.45
20.04
20.76
21.22
21.24
20.86
20.32
19.78
19.28
18.59
17.37
15.21
11.88
7.40
2.11
-3.54
-9.02
-14.00
-18.37
-22.26
-25.96
-29.83
-34.16
-39.16
-44.84
-50.95
-56.81
-61.39
-63.35
-61.49
-55.19
-44.72
-31.27
-16.58
-2.44
9.82
19.60
26.88
31.95
35.13
36.63
36.61
35.30
33.16
30.76
28.69
27.36
26.83
26.88
27.12
27.15
26.76
25.95
24.89
23.72
22.51
21.17
19.49
17.22
14.16
10.22
5.46
0.17
-5.26
-10.38
-14.86
-18.59
-21.82
-25.05
-28.95
-34.05
-40.58
-48.20
-55.92
-62.22
-65.41
-64.12
-57.79
-46.92
-32.97
-17.86
-3.39
9.16
19.25
26.85
32.17
35.46
36.91
36.78
35.43
33.34
31.06
29.07
27.70
27.06
27.05
27.46
27.99
28.39
28.51
28.35
27.89
27.18
26.13
24.61
22.40
19.38
15.51
10.92
5.89
0.81
-3.94
-8.13
-11.72
-14.97
-18.24
-21.95
-26.39
-31.73
-37.97
-44.92
-52.08
-58.52
-62.89
-63.79
-60.13
-51.67
-39.20
-24.39
-9.27
4.40
15.51
23.78
29.43
32.92
34.68
34.96
34.03
32.23
30.07
28.13
26.89
26.58
27.06
27.94
28.74
29.09
28.88
28.22
27.35
26.43
25.48
24.26
22.45
19.65
15.63
10.42
4.36
-1.97
-7.90
-12.99
-17.10
-20.47
-23.59
-26.94
-30.88
-35.58
-40.99
-46.85
-52.64
-57.48
-60.19
-59.58
-54.81
-45.81
-33.48
-19.41
-5.36
7.23
17.64
25.76
31.81
35.97
38.30
38.84
37.82
35.76
33.38
31.38
30.11
29.54
29.32
29.05
28.51
27.69
26.77
25.85
24.87
23.64
21.83
19.14
15.41
10.69
5.21
-0.71
-6.66
-12.24
-17.21
-21.53
-25.38
-29.18
-33.49
-38.74
-45.07
-52.07
-58.77
-63.71
-65.35
-62.55
-55.03
-43.50
-29.52
-14.98
-1.57
9.72
18.59
25.28
30.21
33.64
35.65
36.21
35.39
33.50
31.07
28.77
27.10
26.34
26.44
27.11
27.97
28.65
28.92
28.70
27.98
26.83
25.31
23.45
21.20
18.42
14.98
10.77
5.84
0.44
-5.07
-10.28
-14.94
-19.02
-22.71
-26.28
-30.04
-34.26
-39.15
-44.82
-51.08
-57.28
-62.26
-64.52
-62.62
-55.82
-44.36
-29.55
-13.35
2.22
15.67
26.28
34.03
39.27
42.40
43.77
43.64
42.34
40.32
38.10
36.14
34.72
33.86
33.38
33.02
32.57
31.95
31.16
30.22
29.10
27.70
25.86
23.46
20.39
16.66
12.37
7.65
2.70
-2.27
-7.07
-11.52
-15.59
-19.31
-22.79
-26.25
-29.89
-33.98
-38.79
-44.46
-50.91
-57.56
-63.29
-66.58
-65.96
-60.50
-50.30
-36.48
-20.90
-5.58
7.88
18.56
26.28
31.26
33.82
34.29
32.96
30.30
26.98
23.76
21.34
20.08
19.92
20.50
21.35
22.06
22.38
22.26
21.76
20.93
19.81
18.36
16.47
13.98
10.72
6.63
1.85
-3.31
-8.41
-13.06
-17.14
-20.82
-24.46
-28.53
-33.40
-39.23
-45.86
-52.68
-58.61
-62.19
-62.00
-57.10
-47.53
-34.46
-19.76
-5.43
7.15
17.41
25.49
31.74
36.30
39.00
39.62
38.24
35.43
32.11
29.25
27.51
27.01
27.45
28.25
28.87
28.99
28.53
27.63
26.45
25.12
23.60
21.72
19.24
15.94
11.70
6.59
0.90
-4.98
-10.58
-15.53
-19.65
-23.06
-26.14
-29.44
-33.53
-38.80
-45.25
-52.45
-59.45
-64.87
-67.23
-65.24
-58.35
-46.94
-32.34
-16.46
-1.21
11.97
22.37
29.95
35.01
37.98
39.22
39.01
37.69
35.68
33.54
31.80
30.84
30.77
31.40
32.29
32.93
32.95
32.19
30.75
28.89
26.85
24.73
22.43
19.71
16.36
12.27
7.47
2.10
-3.61
-9.40
-15.02
-20.28
-25.08
-29.48
-33.66
-37.95
-42.70
-48.16
-54.26
-60.50
-65.81
-68.79
-68.05
-62.70
-52.71
-39.07
-23.49
-7.97
5.82
16.85
24.79
29.84
32.42
32.99
32.01
29.97
27.42
24.97
23.15
22.26
22.30
23.00
23.88
24.48
24.53
24.01
23.11
22.11
21.08
19.87
18.10
15.36
11.44
6.45
0.85
-4.78
-9.95
-14.44
-18.36
-22.10
-26.19
-31.08
-37.05
-43.95
-51.14
-57.51
-61.62
-62.10
-58.06
-49.39
-36.87
-22.04
-6.72
7.38
19.11
27.99
34.11
37.89
39.75
40.00
38.88
36.66
33.77
30.80
28.35
26.88
26.46
26.83
27.44
27.76
27.42
26.36
24.83
23.17
21.59
20.00
18.06
15.27
11.29
6.15
0.25
-5.77
-11.28
-15.97
-19.86
-23.27
-26.68
-30.56
-35.30
-41.05
-47.69
-54.66
-60.91
-65.06
-65.68
-61.71
-52.90
-39.94
-24.34
-8.10
6.88
19.23
28.35
34.34
37.79
39.39
39.69
39.05
37.69
35.83
33.80
32.02
30.84
30.40
30.65
31.28
31.96
32.38
32.37
31.83
30.73
29.13
27.06
24.57
21.68
18.44
14.84
10.95
6.84
2.60
-1.65
-5.82
-9.88
-13.83
-17.70
-21.58
-25.60
-30.03
-35.21
-41.39
-48.47
-55.78
-62.09
-65.80
-65.45
-60.20
-50.21
-36.63
-21.31
-6.21
7.11
17.80
25.70
31.10
34.40
35.90
35.81
34.42
32.15
29.63
27.51
26.21
25.77
25.84
25.89
25.49
24.51
23.10
21.58
20.20
19.01
17.83
16.29
14.02
10.75
6.49
1.51
-3.70
-8.62
-12.84
-16.29
-19.23
-22.11
-25.40
-29.44
-34.33
-39.96
-45.96
-51.71
-56.34
-58.80
-58.05
-53.42
-44.87
-33.11
-19.44
-5.42
7.54
18.44
26.75
32.34
35.36
36.07
34.84
32.21
28.85
25.53
22.96
21.56
21.32
21.83
22.43
22.55
21.93
20.76
19.49
18.53
17.99
17.56
16.61
14.53
11.03
6.25
0.76
-4.74
-9.72
-13.97
-17.68
-21.32
-25.35
-30.17
-35.90
-42.39
-49.05
-54.98
-58.98
-59.83
-56.67
-49.27
-38.21
-24.75
-10.48
3.02
14.55
23.42
29.47
32.93
34.25
34.00
32.72
30.87
28.81
26.87
25.32
24.38
24.16
24.56
25.30
25.98
26.22
25.79
24.67
23.02
21.07
18.95
16.70
14.20
11.27
7.78
3.73
-0.74
-5.37
-9.89
-14.11
-17.94
-21.45
-24.77
-28.07
-31.51
-35.32
-39.67
-44.59
-49.71
-54.19
-56.76
-56.11
-51.34
-42.37
-30.05
-15.96
-1.94
10.50
20.46
27.75
32.61
35.44
36.52
36.04
34.19
31.32
27.99
24.89
22.59
21.44
21.30
21.75
22.24
22.36
21.97
21.19
20.28
19.36
18.47
17.42
15.96
13.86
10.99
7.38
3.13
-1.56
-6.49
-11.38
-15.96
-19.99
-23.35
-26.16
-28.82
-31.88
-35.84
-40.97
-47.02
-53.21
-58.25
-60.64
-59.14
-53.16
-43.02
-29.96
-15.72
-2.09
9.57
18.61
24.99
29.03
31.09
31.46
30.34
27.98
24.86
21.64
19.02
17.53
17.25
17.87
18.80
19.42
19.33
18.54
17.42
16.38
15.72
15.33
14.77
13.46
10.96
7.21
2.57
-2.36
-6.96
-10.88
-14.08
-16.88
-19.71
-23.05
-27.22
-32.35
-38.25
-44.38
-49.77
-53.17
-53.32
-49.37
-41.29
-29.96
-16.88
-3.83
7.69
16.81
23.32
27.48
29.79
30.73
30.67
29.88
28.59
27.05
25.55
24.34
23.54
23.15
23.03
22.94
22.75
22.41
21.97
21.51
20.97
20.11
18.68
16.45
13.38
9.60
5.32
0.72
-4.03
-8.75
-13.23
-17.28
-20.80
-23.91
-26.91
-30.22
-34.22
-39.11
-44.79
-50.81
-56.29
-60.06
-60.82
-57.54
-49.87
-38.37
-24.47
-10.00
3.33
14.40
22.81
28.72
32.55
34.66
35.33
34.76
33.28
31.28
29.18
27.38
26.11
25.46
25.38
25.68
26.06
26.18
25.76
24.74
23.28
21.68
20.17
18.77
17.18
14.99
11.86
7.77
2.98
-2.08
-7.01
-11.63
-15.95
-20.04
-23.92
-27.59
-31.05
-34.42
-38.04
-42.24
-47.23
-52.65
-57.61
-60.74
-60.65
-56.44
-48.06
-36.38
-22.97
-9.51
2.62
12.61
20.16
25.32
28.29
29.29
28.57
26.54
23.73
20.77
18.25
16.62
16.05
16.41
17.32
18.33
19.07
19.35
19.20
18.79
18.17
17.26
15.80
13.47
10.11
5.85
1.10
-3.57
-7.69
-11.10
-13.98
-16.79
-20.09
-24.36
-29.83
-36.40
-43.55
-50.34
-55.53
-57.74
-55.86
-49.41
-38.86
-25.55
-11.43
1.61
12.29
20.13
25.35
28.52
30.12
30.42
29.57
27.74
25.32
22.87
20.95
19.88
19.64
19.93
20.32
20.49
20.31
19.85
19.28
18.67
17.96
16.88
15.08
12.28
8.47
3.89
-1.01
-5.78
-10.10
-13.91
-17.35
-20.75
-24.48
-28.94
-34.38
-40.74
-47.47
-53.46
-57.20
-57.24
-52.65
-43.46
-30.77
-16.36
-2.22
10.13
19.87
26.88
31.50
34.19
35.32
35.14
33.86
31.82
29.46
27.27
25.65
24.76
24.51
24.57
24.65
24.55
24.25
23.90
23.65
23.53
23.40
22.90
21.63
19.24
15.62
10.97
5.71
0.36
-4.66
-9.14
-13.13
-16.90
-20.83
-25.30
-30.63
-36.90
-43.87
-50.91
-56.89
-60.44
-60.22
-55.45
-46.21
-33.58
-19.31
-5.29
6.93
16.54
23.43
27.90
30.38
31.25
30.80
29.35
27.33
25.22
23.49
22.36
21.80
21.59
21.38
20.95
20.21
19.26
18.26
17.37
16.62
15.83
14.63
12.56
9.32
4.94
-0.18
-5.44
-10.27
-14.41
-17.95
-21.36
-25.15
-29.76
-35.39
-41.86
-48.59
-54.64
-58.71
-59.54
-56.19
-48.47
-37.10
-23.50
-9.42
3.63
14.65
23.25
29.39
33.23
35.00
34.94
33.43
30.98
28.19
25.63
23.71
22.60
22.23
22.30
22.52
22.67
22.65
22.49
22.25
21.86
21.12
19.67
17.19
13.50
8.74
3.32
-2.18
-7.23
-11.53
-15.14
-18.39
-21.83
-26.03
-31.35
-37.86
-45.11
-52.10
-57.39
-59.45
-57.08
-49.89
-38.54
-24.54
-9.85
3.77
15.21
24.08
30.58
35.06
37.82
39.06
38.91
37.64
35.71
33.62
31.83
30.57
29.89
29.68
29.75
29.95
30.09
29.99
29.44
28.32
26.57
24.24
21.40
18.08
14.29
10.01
5.33
0.39
-4.60
-9.41
-13.87
-17.89
-21.48
-24.76
-27.98
-31.54
-35.94
-41.49
-48.17
-55.35
-61.79
-65.92
-66.25
-61.86
-52.74
-39.78
-24.55
-8.83
5.80
18.33
28.30
35.71
40.80
43.82
45.11
45.02
44.01
42.55
41.08
39.85
38.86
37.98
37.03
35.95
34.87
34.05
33.63
33.60
33.64
33.28
32.09
29.85
26.67
22.85
18.79
14.72
10.68
6.53
2.09
-2.69
-7.73
-12.82
-17.72
-22.29
-26.48
-30.37
-34.17
-38.19
-42.80
-48.24
-54.42
-60.72
-65.94
-68.58
-67.21
-61.05
-50.35
-36.29
-20.75
-5.61
7.63
18.19
25.89
30.98
33.84
34.84
34.31
32.66
30.37
28.07
26.29
25.40
25.42
26.08
26.95
27.62
27.85
27.64
27.11
26.40
25.49
24.26
22.49
20.03
16.81
12.91
8.47
3.68
-1.23
-5.97
-10.28
-13.98
-17.04
-19.65
-22.16
-25.02
-28.59
-33.11
-38.55
-44.53
-50.24
-54.52
-56.06
-53.79
-47.26
-36.88
-23.88
-9.92
3.35
14.77
23.76
30.25
34.47
36.69
37.26
36.57
35.07
33.21
31.40
29.88
28.69
27.81
27.15
26.68
26.42
26.39
26.52
26.64
26.48
25.73
24.18
21.78
18.68
15.16
11.53
7.98
4.54
1.10
-2.49
-6.26
-10.13
-13.93
-17.47
-20.66
-23.53
-26.26
-29.12
-32.47
-36.63
-41.74
-47.56
-53.34
-57.90
-59.82
-57.91
-51.64
-41.38
-28.39
-14.45
-1.28
9.92
18.64
24.97
29.26
31.85
32.95
32.70
31.32
29.21
26.92
24.96
23.68
23.16
23.29
23.92
24.86
26.01
27.25
28.39
29.21
29.48
29.03
27.82
25.87
23.28
20.13
16.62
13.00
9.56
6.51
3.86
1.41
-1.20
-4.30
-7.94
-11.87
-15.68
-18.96
-21.67
-24.09
-26.76
-30.24
-34.87
-40.53
-46.71
-52.44
-56.53
-57.83
-55.50
-49.33
-39.87
-28.28
-16.04
-4.53
5.29
13.00
18.61
22.34
24.41
24.99
24.23
22.41
19.96
17.42
15.30
13.93
13.42
13.59
14.13
14.68
14.95
14.74
13.99
12.75
11.11
9.21
7.11
4.83
2.30
-0.59
-3.87
-7.47
-11.21
-14.87
-18.29
-21.48
-24.58
-27.79
-31.27
-35.13
-39.37
-43.86
-48.29
-52.01
-54.16
-53.77
-50.10
-43.01
-33.09
-21.48
-9.58
1.43
10.80
18.24
23.74
27.37
29.18
29.25
27.87
25.56
23.03
21.00
19.94
19.92
20.63
21.55
22.14
22.13
21.49
20.41
19.17
17.98
16.91
15.86
14.63
12.94
10.52
7.23
3.12
-1.52
-6.26
-10.63
-14.42
-17.68
-20.80
-24.31
-28.62
-33.82
-39.52
-44.91
-48.89
-50.30
-48.30
-42.63
-33.68
-22.53
-10.57
0.80
10.53
18.06
23.31
26.50
27.94
27.93
26.72
24.62
22.00
19.38
17.25
16.03
15.82
16.42
17.38
18.15
18.38
17.94
16.98
15.74
14.45
13.17
11.78
10.09
7.86
4.95
1.35
-2.81
-7.24
-11.65
-15.76
-19.43
-22.69
-25.72
-28.82
-32.38
-36.72
-41.92
-47.66
-53.08
-56.89
-57.68
-54.42
-46.91
-35.95
-23.10
-10.21
1.21
10.36
17.10
21.79
24.86
26.61
27.14
26.47
24.76
22.40
19.93
17.93
16.73
16.36
16.57
16.92
17.07
16.84
16.26
15.50
14.64
13.64
12.27
10.26
7.42
3.72
-0.57
-5.04
-9.24
-12.87
-15.87
-18.45
-20.99
-23.92
-27.66
-32.43
-38.21
-44.55
-50.59
-55.09
-56.73
-54.56
-48.28
-38.50
-26.49
-13.81
-1.84
8.51
16.83
23.06
27.24
29.45
29.89
28.86
26.95
24.85
23.17
22.29
22.17
22.44
22.62
22.28
21.30
19.92
18.58
17.61
17.06
16.59
15.62
13.64
10.47
6.35
1.82
-2.54
-6.35
-9.58
-12.49
-15.55
-19.20
-23.82
-29.56
-36.21
-43.10
-49.10
-52.81
-52.96
-48.87
-40.65
-29.33
-16.43
-3.58
7.94
17.39
24.58
29.62
32.76
34.25
34.34
33.32
31.60
29.64
27.88
26.59
25.81
25.37
24.99
24.47
23.75
22.99
22.39
22.04
21.80
21.28
20.01
17.57
13.87
9.16
3.94
-1.14
-5.59
-9.21
-12.18
-14.91
-17.90
-21.60
-26.27
-31.90
-38.24
-44.73
-50.41
-54.07
-54.47
-50.75
-42.80
-31.39
-18.01
-4.43
7.85
17.92
25.53
30.90
34.41
36.42
37.21
37.07
36.36
35.49
34.80
34.48
34.52
34.72
34.84
34.67
34.13
33.22
32.01
30.53
28.80
26.85
24.76
22.64
20.52
18.33
15.84
12.75
8.80
4.01
-1.33
-6.71
-11.61
-15.72
-19.05
-21.92
-24.80
-28.20
-32.48
-37.77
-43.88
-50.16
-55.56
-58.70
-58.32
-53.68
-44.87
-32.89
-19.36
-5.99
5.92
15.67
23.15
28.57
32.15
34.03
34.26
33.03
30.72
27.96
25.41
23.61
22.78
22.77
23.19
23.55
23.54
23.01
22.02
20.72
19.23
17.61
15.84
13.82
11.42
8.55
5.16
1.38
-2.59
-6.46
-10.04
-13.26
-16.34
-19.62
-23.48
-28.17
-33.61
-39.39
-44.77
-48.72
-50.16
-48.17
-42.41
-33.18
-21.51
-8.87
3.26
13.73
21.98
27.93
31.83
33.98
34.64
34.05
32.48
30.29
27.92
25.82
24.33
23.63
23.68
24.23
24.88
25.24
24.97
23.99
22.43
20.53
18.55
16.55
14.44
12.01
9.03
5.39
1.24
-3.12
-7.31
-11.03
-14.21
-17.04
-19.89
-23.18
-27.21
-32.13
-37.83
-43.88
-49.51
-53.61
-54.99
-52.66
-46.27
-36.27
-23.93
-10.86
1.39
11.78
19.91
25.85
29.88
32.29
33.30
33.10
31.98
30.35
28.67
27.35
26.58
26.32
26.38
26.49
26.47
26.26
25.90
25.41
24.74
23.77
22.38
20.53
18.30
15.81
13.11
10.12
6.69
2.76
-1.56
-5.98
-10.16
-13.89
-17.21
-20.32
-23.52
-27.06
-31.09
-35.67
-40.68
-45.76
-50.16
-52.86
-52.71
-48.91
-41.35
-30.74
-18.45
-6.15
4.70
13.20
19.09
22.67
24.49
25.08
24.80
23.80
22.17
20.09
17.93
16.14
15.13
15.00
15.59
16.46
17.15
17.35
16.98
16.15
14.98
13.59
11.94
9.92
7.44
4.46
1.05
-2.63
-6.36
-9.90
-13.11
-15.90
-18.32
-20.54
-22.80
-25.38
-28.56
-32.47
-37.05
-41.87
-46.09
-48.58
-48.22
-44.24
-36.61
-26.14
-14.32
-2.82
7.01
14.51
19.73
23.19
25.42
26.75
27.19
26.66
25.16
23.03
20.80
19.09
18.27
18.35
18.95
19.52
19.63
19.06
17.91
16.42
14.82
13.21
11.52
9.56
7.18
4.31
1.02
-2.52
-6.09
-9.54
-12.80
-15.86
-18.82
-21.84
-25.19
-29.12
-33.78
-39.07
-44.51
-49.19
-51.97
-51.74
-47.82
-40.28
-29.88
-17.94
-5.91
4.97
13.90
20.57
25.04
27.63
28.69
28.58
27.58
26.00
24.13
22.33
20.85
19.89
19.46
19.47
19.81
20.34
20.98
21.55
21.86
21.66
20.81
19.32
17.37
15.20
12.95
10.55
7.80
4.54
0.73
-3.46
-7.75
-11.84
-15.55
-18.79
-21.58
-24.06
-26.44
-29.05
-32.25
-36.26
-40.95
-45.65
-49.22
-50.32
-47.89
-41.58
-31.91
-20.13
-7.84
3.52
12.97
20.12
24.99
27.84
28.95
28.58
27.05
24.79
22.30
20.14
18.70
18.19
18.45
19.16
19.89
20.35
20.43
20.21
19.78
19.14
18.11
16.48
14.16
11.29
8.16
5.07
2.09
-0.92
-4.19
-7.84
-11.74
-15.59
-19.09
-22.13
-24.91
-27.81
-31.21
-35.36
-40.09
-44.82
-48.62
-50.35
-49.01
-44.02
-35.54
-24.49
-12.29
-0.49
9.68
17.50
22.82
25.78
26.69
25.95
24.04
21.65
19.51
18.25
18.15
19.03
20.36
21.50
21.90
21.38
20.08
18.39
16.76
15.48
14.55
13.73
12.58
10.71
7.85
4.06
-0.34
-4.87
-9.11
-12.81
-16.00
-18.91
-21.90
-25.34
-29.46
-34.26
-39.31
-43.73
-46.33
-45.96
-41.87
-34.11
-23.53
-11.58
0.15
10.42
18.53
24.39
28.19
30.22
30.72
29.94
28.22
26.06
23.96
22.37
21.45
21.15
21.24
21.44
21.51
21.30
20.70
19.72
18.39
16.87
15.28
13.72
12.13
10.33
8.06
5.14
1.56
-2.47
-6.61
-10.53
-14.07
-17.23
-20.16
-23.06
-26.14
-29.60
-33.61
-38.21
-43.15
-47.68
-50.63
-50.67
-46.83
-38.96
-27.92
-15.28
-2.82
8.08
16.76
23.14
27.49
30.10
31.14
30.79
29.34
27.22
24.94
23.00
21.68
21.06
21.06
21.51
22.16
22.82
23.31
23.48
23.23
22.45
21.07
19.03
16.38
13.24
9.83
6.37
2.98
-0.31
-3.58
-6.92
-10.34
-13.74
-17.00
-19.98
-22.69
-25.24
-27.91
-31.07
-34.97
-39.59
-44.41
-48.44
-50.45
-49.29
-44.41
-36.03
-25.14
-13.24
-1.92
7.65
14.84
19.61
22.30
23.39
23.29
22.30
20.61
18.44
16.16
14.23
13.07
12.83
13.30
13.97
14.26
13.88
12.96
11.95
11.33
11.29
11.55
11.56
10.68
8.58
5.35
1.42
-2.70
-6.58
-10.04
-13.10
-15.94
-18.77
-21.89
-25.60
-30.06
-35.17
-40.38
-44.66
-46.79
-45.65
-40.69
-32.18
-21.21
-9.37
1.72
10.88
17.61
22.04
24.65
25.95
26.29
25.78
24.44
22.44
20.09
17.90
16.37
15.76
16.06
16.92
17.92
18.63
18.84
18.50
17.75
16.73
15.51
14.00
12.00
9.28
5.75
1.60
-2.78
-6.92
-10.49
-13.51
-16.25
-19.21
-22.77
-27.14
-32.23
-37.68
-42.95
-47.34
-50.05
-50.24
-47.29
-41.01
-31.80
-20.62
-8.78
2.40
11.93
19.29
24.42
27.53
28.96
29.04
28.02
26.20
23.94
21.68
19.87
18.81
18.58
18.99
19.69
20.29
20.60
20.58
20.37
20.11
19.74
19.07
17.75
15.47
12.16
7.97
3.25
-1.53
-5.96
-9.81
-13.03
-15.78
-18.34
-21.04
-24.21
-28.02
-32.51
-37.53
-42.69
-47.41
-50.90
-52.29
-50.79
-45.95
-37.87
-27.26
-15.39
-3.68
6.63
14.78
20.55
24.15
25.90
26.10
24.95
22.70
19.80
16.82
14.43
13.02
12.68
13.06
13.61
13.83
13.52
12.80
12.04
11.54
11.37
11.24
10.66
9.14
6.43
2.67
-1.64
-5.91
-9.66
-12.79
-15.58
-18.45
-21.80
-25.77
-30.31
-35.18
-40.10
-44.60
-48.11
-49.75
-48.64
-44.14
-36.19
-25.54
-13.51
-1.68
8.66
16.85
22.89
27.10
29.85
31.27
31.33
30.07
27.79
25.07
22.63
21.03
20.45
20.61
20.97
21.03
20.51
19.50
18.32
17.30
16.62
16.16
15.52
14.25
11.94
8.52
4.24
-0.42
-4.90
-8.88
-12.30
-15.39
-18.52
-22.06
-26.28
-31.33
-37.13
-43.28
-49.00
-53.14
-54.49
-52.10
-45.71
-35.86
-23.74
-10.90
1.23
11.64
19.86
25.91
30.05
32.67
34.06
34.49
34.17
33.39
32.44
31.64
31.20
31.10
31.14
31.06
30.71
30.06
29.28
28.49
27.69
26.72
25.30
23.23
20.39
16.90
12.97
8.84
4.68
0.59
-3.43
-7.33
-11.07
-14.58
-17.82
-20.83
-23.82
-27.09
-31.05
-35.99
-41.92
-48.28
-53.97
-57.56
-57.65
-53.42
-44.95
-33.28
-20.08
-7.15
4.10
12.94
19.28
23.43
25.79
26.69
26.33
24.96
22.98
20.92
19.31
18.46
18.45
19.01
19.76
20.39
20.69
20.70
20.54
20.33
20.06
19.60
18.64
16.93
14.23
10.57
6.21
1.62
-2.73
-6.49
-9.65
-12.49
-15.45
-18.99
-23.39
-28.67
-34.61
-40.59
-45.71
-48.87
-49.01
-45.47
-38.21
-27.97
-16.04
-3.92
7.08
16.14
22.98
27.70
30.56
31.81
31.67
30.38
28.33
26.00
23.96
22.65
22.29
22.74
23.62
24.46
24.92
24.85
24.29
23.32
22.02
20.40
18.38
15.86
12.78
9.08
4.84
0.22
-4.48
-8.88
-12.68
-15.79
-18.39
-20.93
-23.95
-27.90
-32.91
-38.75
-44.70
-49.72
-52.55
-52.03
-47.42
-38.77
-26.94
-13.54
-0.35
11.12
20.05
26.35
30.47
33.00
34.32
34.64
34.03
32.65
30.85
29.09
27.81
27.23
27.31
27.83
28.47
28.98
29.21
29.08
28.55
27.62
26.30
24.65
22.77
20.75
18.57
16.05
12.96
9.07
4.35
-0.99
-6.48
-11.66
-16.16
-19.92
-23.14
-26.20
-29.62
-33.75
-38.80
-44.59
-50.44
-55.20
-57.49
-56.06
-50.30
-40.62
-28.32
-15.22
-3.03
7.09
14.77
20.20
23.81
25.98
26.90
26.72
25.61
23.93
22.13
20.66
19.81
19.64
19.98
20.52
20.95
20.99
20.55
19.69
18.52
17.12
15.44
13.32
10.57
7.19
3.34
-0.64
-4.41
-7.84
-10.99
-14.10
-17.45
-21.19
-25.43
-30.20
-35.46
-41.04
-46.44
-50.75
-52.78
-51.47
-46.26
-37.45
-26.13
-13.82
-2.01
8.27
16.52
22.65
26.74
28.85
29.12
27.76
25.22
22.15
19.24
17.05
15.88
15.67
16.11
16.77
17.32
17.58
17.55
17.34
17.03
16.59
15.83
14.51
12.36
9.27
5.29
0.67
-4.21
-8.93
-13.13
-16.69
-19.77
-22.84
-26.47
-31.04
-36.47
-42.10
-46.82
-49.34
-48.63
-44.16
-36.09
-25.25
-12.93
-0.58
10.53
19.45
25.79
29.63
31.32
31.38
30.22
28.20
25.63
22.88
20.41
18.67
17.92
18.12
18.90
19.69
19.98
19.53
18.46
17.09
15.81
14.79
13.89
12.73
10.81
7.84
3.82
-0.91
-5.81
-10.41
-14.40
-17.81
-20.84
-23.85
-27.16
-31.01
-35.48
-40.42
-45.35
-49.45
-51.57
-50.54
-45.57
-36.61
-24.49
-10.74
2.85
14.75
24.05
30.54
34.51
36.43
36.77
35.86
33.99
31.51
28.81
26.36
24.52
23.44
23.03
22.97
22.87
22.42
21.51
20.24
18.83
17.50
16.26
14.92
13.14
10.54
6.94
2.42
-2.62
-7.57
-11.90
-15.32
-17.88
-20.05
-22.40
-25.52
-29.78
-35.20
-41.44
-47.74
-53.01
-55.99
-55.60
-51.23
-43.04
-31.94
-19.34
-6.75
4.57
13.82
20.63
24.96
26.95
26.96
25.52
23.29
20.98
19.09
17.87
17.25
17.02
16.92
16.81
16.63
16.43
16.20
15.94
15.52
14.77
13.43
11.32
8.36
4.68
0.55
-3.64
-7.56
-11.02
-14.07
-17.02
-20.28
-24.30
-29.31
-35.22
-41.50
-47.12
-50.78
-51.17
-47.45
-39.56
-28.48
-15.90
-3.71
6.63
14.48
20.03
23.93
26.76
28.70
29.59
29.25
27.79
25.80
24.06
23.17
23.23
23.79
24.18
23.86
22.79
21.33
20.03
19.30
19.13
19.11
18.59
16.96
13.92
9.60
4.50
-0.73
-5.55
-9.68
-13.17
-16.32
-19.51
-23.09
-27.36
-32.48
-38.44
-44.84
-50.77
-54.93
-55.87
-52.53
-44.72
-33.30
-19.91
-6.49
5.38
14.91
22.02
27.14
30.77
33.23
34.55
34.72
33.82
32.14
30.17
28.43
27.24
26.69
26.63
26.83
27.11
27.34
27.45
27.37
27.03
26.34
25.19
23.42
20.89
17.43
13.03
7.86
2.26
-3.25
-8.25
-12.52
-16.13
-19.45
-22.86
-26.75
-31.34
-36.68
-42.59
-48.58
-53.80
-57.08
-57.25
-53.44
-45.51
-34.16
-20.86
-7.38
4.65
14.19
20.86
24.83
26.57
26.60
25.44
23.59
21.55
19.79
18.65
18.24
18.42
18.85
19.15
19.00
18.35
17.38
16.41
15.72
15.37
15.15
14.53
12.96
10.02
5.73
0.56
-4.70
-9.30
-12.83
-15.38
-17.54
-20.08
-23.71
-28.75
-34.96
-41.60
-47.43
-51.07
-51.27
-47.30
-39.21
-27.94
-15.06
-2.30
8.89
17.70
24.02
28.14
30.51
31.46
31.17
29.77
27.49
24.75
22.15
20.22
19.28
19.29
20.01
21.05
22.16
23.16
23.95
24.25
23.62
21.50
17.39
11.20
3.29
-5.53
-14.32
-22.29
-29.02
-34.57
-39.28
-43.63
-48.01
-52.70
-57.78
-63.13
-68.41
-72.98
-75.99
-76.45
-73.53
-66.86
-56.65
-43.67
-28.99
-13.71
1.31
15.46
28.23
39.14
47.74
53.74
57.23
58.71
58.93
58.68
58.50
58.52
58.55
58.25
57.24
55.24
52.15
48.02
43.20
38.31
34.18
31.48
30.37
30.37
30.45
29.56
27.02
22.83
17.52
11.75
6.02
0.41
-5.15
-10.79
-16.43
-21.99
-27.40
-32.87
-38.70
-45.08
-51.85
-58.30
-63.33
-65.67
-64.21
-58.37
-48.30
-35.02
-20.10
-5.32
7.80
18.29
25.91
30.93
33.90
35.37
35.71
35.17
33.98
32.38
30.63
28.99
27.60
26.41
25.28
24.02
22.54
20.91
19.37
18.18
17.49
17.14
16.65
15.43
12.98
9.19
4.41
-0.74
-5.59
-9.80
-13.42
-16.78
-20.32
-24.30
-28.80
-33.70
-38.76
-43.61
-47.69
-50.29
-50.66
-48.24
-42.88
-34.94
-25.22
-14.72
-4.42
4.94
12.88
19.14
23.60
26.24
27.15
26.57
24.85
22.46
19.89
17.56
15.76
14.63
14.12
14.04
14.14
14.17
13.89
13.12
11.69
9.47
6.40
2.57
-1.77
-6.21
-10.35
-13.90
-16.90
-19.68
-22.78
-26.71
-31.68
-37.51
-43.53
-48.78
-52.14
-52.63
-49.62
-43.01
-33.32
-21.52
-8.79
3.88
15.93
27.21
37.79
47.57
56.10
62.67
66.55
67.34
65.18
60.76
55.13
49.42
44.53
40.85
38.21
35.94
33.23
29.51
24.80
19.70
15.14
11.86
10.06
9.40
9.16
8.72
7.81
6.53
5.12
3.72
2.14
-0.12
-3.77
-9.44
-17.28
-26.70
-36.27
-44.00
-47.99
-47.15
-41.64
-32.83
-22.67
-12.96
-4.76
1.65
6.44
9.76
11.40
10.98
8.26
3.45
-2.69
-9.22
-15.27
-20.31
-24.20
-26.98
-28.67
-29.22
-28.54
-26.66
-23.89
-20.75
-17.93
-16.04
-15.41
-16.05
-17.69
-19.87
-22.08
-23.90
-25.10
-25.72
-26.10
-26.76
-28.21
-30.69
-33.94
-37.08
-38.83
-37.90
-33.51
-25.78
-15.78
-5.14
4.46
11.84
16.63
19.17
20.31
20.97
21.91
23.54
25.96
28.95
32.03
34.60
36.03
35.84
33.93
30.55
26.29
21.79
17.57
13.88
10.68
7.81
5.04
2.21
-0.77
-4.04
-7.69
-11.87
-16.65
-21.97
-27.70
-33.69
-39.82
-46.09
-52.36
-58.28
-63.10
-65.76
-65.20
-60.78
-52.64
-41.78
-29.76
-18.29
-8.69
-1.55
3.20
6.14
7.98
9.41
11.03
13.41
17.06
22.38
29.34
37.37
45.46
52.39
57.27
59.75
60.12
58.97
56.89
54.10
50.58
46.20
41.07
35.59
30.34
25.90
22.54
20.19
18.50
16.98
15.23
13.02
10.40
7.66
5.33
4.02
4.33
6.63
10.99
17.08
24.24
31.65
38.49
44.06
47.90
49.72
49.40
46.91
42.33
35.90
28.06
19.44
10.76
2.69
-4.25
-9.80
-13.84
-16.39
-17.50
-17.21
-15.71
-13.30
-10.49
-8.02
-6.63
-6.94
-9.27
-13.54
-19.25
-25.65
-31.83
-37.05
-40.87
-43.39
-45.10
-46.78
-49.06
-52.05
-55.27
-57.70
-58.15
-55.74
-50.26
-42.18
-32.49
-22.24
-12.25
-2.90
5.74
13.71
20.88
26.95
31.49
34.19
35.04
34.37
32.70
30.51
28.13
25.58
22.86
19.99
17.15
14.59
12.38
10.38
8.11
5.02
0.68
-4.97
-11.58
-18.50
-24.99
-30.43
-34.53
-37.36
-39.31
-40.99
-43.00
-45.71
-48.96
-51.99
-53.59
-52.47
-47.80
-39.57
-28.65
-16.47
-4.55
6.02
14.73
21.52
26.57
30.03
31.91
32.20
31.04
28.80
26.06
23.43
21.31
19.83
18.78
17.79
16.56
15.09
13.62
12.60
12.30
12.62
13.00
12.62
10.73
7.01
1.69
-4.62
-11.16
-17.34
-22.95
-28.07
-33.07
-38.32
-44.03
-50.16
-56.26
-61.56
-65.15
-66.15
-64.01
-58.56
-50.05
-39.01
-26.17
-12.43
1.20
13.63
23.82
31.02
34.93
35.80
34.35
31.50
28.20
25.13
22.55
20.29
17.91
14.85
10.72
5.41
-0.73
-7.04
-12.60
-16.50
-17.96
-16.60
-12.50
-6.22
1.35
9.15
16.23
21.92
25.84
27.85
27.84
25.65
21.04
13.90
4.49
-6.38
-17.30
-26.50
-32.30
-33.60
-30.22
-22.91
-13.12
-2.47
7.65
16.39
23.45
28.80
32.57
34.79
35.42
34.33
31.41
26.57
19.76
11.02
0.65
-10.74
-22.05
-31.86
-38.73
-41.76
-40.91
-37.16
-32.06
-27.23
-23.70
-21.65
-20.55
-19.61
-18.25
-16.37
-14.32
-12.68
-12.03
-12.74
-14.95
-18.60
-23.37
-28.70
-33.82
-37.90
-40.21
-40.30
-38.08
-33.82
-28.11
-21.68
-15.21
-9.24
-4.00
0.52
4.52
8.22
11.76
15.10
18.05
20.36
21.84
22.51
22.64
22.73
23.31
24.85
27.49
31.05
34.99
38.55
41.10
42.16
41.64
39.66
36.52
32.58
28.22
23.84
19.80
16.35
13.50
11.04
8.73
6.54
4.84
4.36
6.00
10.37
17.53
26.80
36.97
46.61
54.44
59.53
61.41
60.05
55.79
49.29
41.42
33.10
25.12
18.06
12.13
7.26
3.18
-0.46
-3.91
-7.24
-10.33
-13.03
-15.32
-17.41
-19.76
-22.89
-27.12
-32.36
-38.15
-43.84
-48.85
-52.96
-56.24
-59.05
-61.79
-64.82
-68.33
-72.25
-76.15
-79.15
-80.08
-77.77
-71.53
-61.42
-48.40
-33.96
-19.70
-6.91
3.68
11.85
17.68
21.43
23.43
24.04
23.67
22.71
21.47
20.16
18.88
17.76
16.86
16.26
15.94
15.83
15.75
15.55
15.08
14.22
12.85
10.90
8.35
5.29
1.95
-1.43
-4.70
-7.86
-11.15
-14.89
-19.42
-24.86
-31.00
-37.24
-42.66
-46.17
-46.74
-43.69
-36.87
-26.82
-14.71
-2.04
9.75
19.66
27.25
32.64
36.17
38.17
38.77
37.95
35.69
32.25
28.17
24.18
21.01
19.04
18.26
18.32
18.74
19.14
19.33
19.28
18.99
18.33
17.09
15.03
12.05
8.29
4.02
-0.54
-5.36
-10.70
-16.90
-24.15
-32.19
-40.23
-47.12
-51.69
-53.15
-51.30
-46.58
-39.86
-32.08
-23.98
-15.99
-8.31
-1.07
5.48
11.09
15.44
18.43
20.08
20.57
20.15
19.08
17.67
16.25
15.17
14.70
14.95
15.84
17.17
18.65
19.95
20.74
20.62
19.26
16.45
12.28
7.10
1.38
-4.50
-10.38
-16.32
-22.32
-28.03
-32.60
-34.77
-33.33
-27.65
-18.10
-6.06
6.53
17.87
26.86
33.39
38.06
41.65
44.61
46.88
48.08
47.81
46.09
43.34
40.20
37.25
34.75
32.66
30.78
28.93
27.05
25.14
23.19
21.10
18.67
15.66
11.92
7.48
2.55
-2.55
-7.52
-12.16
-16.49
-20.76
-25.29
-30.32
-35.72
-40.89
-44.72
-45.94
-43.54
-37.23
-27.60
-15.96
-3.95
7.07
16.26
23.34
28.40
31.61
33.14
33.16
31.95
29.97
27.75
25.79
24.37
23.60
23.41
23.71
24.39
25.30
26.23
26.88
27.00
26.37
24.95
22.78
20.03
16.89
13.61
10.38
7.31
4.36
1.39
-1.78
-5.27
-9.11
-13.18
-17.32
-21.36
-25.28
-29.22
-33.44
-38.29
-43.94
-50.21
-56.41
-61.33
-63.51
-61.68
-55.26
-44.60
-30.97
-16.17
-2.01
10.18
19.67
26.40
30.71
33.12
34.10
34.02
33.23
31.98
30.58
29.28
28.32
27.80
27.75
28.10
28.72
29.50
30.30
30.96
31.31
31.18
30.35
28.71
26.23
22.98
19.19
15.12
11.07
7.26
3.79
0.58
-2.51
-5.68
-9.11
-12.86
-16.92
-21.26
-25.86
-30.76
-36.02
-41.58
-47.10
-51.81
-54.59
-54.24
-49.92
-41.48
-29.71
-16.08
-2.34
10.01
20.05
27.55
32.68
35.83
37.27
37.24
35.94
33.69
30.98
28.36
26.26
24.90
24.21
23.97
23.97
24.04
24.14
24.22
24.18
23.80
22.85
21.18
18.80
15.91
12.77
9.59
6.44
3.24
-0.18
-3.90
-7.89
-11.95
-15.83
-19.31
-22.34
-25.08
-27.93
-31.36
-35.68
-40.81
-46.14
-50.53
-52.64
-51.30
-46.02
-37.18
-26.00
-14.06
-2.85
6.67
14.20
19.80
23.66
25.81
26.25
25.06
22.64
19.67
16.93
15.05
14.29
14.58
15.64
17.15
18.84
20.49
21.86
22.78
23.13
22.89
22.20
21.18
19.83
18.03
15.57
12.37
8.56
4.54
0.78
-2.35
-4.80
-6.83
-8.90
-11.46
-14.85
-19.09
-23.99
-29.17
-34.05
-37.90
-39.92
-39.36
-35.79
-29.28
-20.46
-10.37
-0.21
8.94
16.40
21.82
25.26
26.93
27.17
26.30
24.65
22.60
20.52
18.75
17.58
17.09
17.21
17.63
18.03
18.09
17.70
16.93
15.90
14.75
13.54
12.21
10.71
8.92
6.75
4.13
1.05
-2.40
-6.03
-9.54
-12.68
-15.33
-17.54
-19.57
-21.73
-24.31
-27.46
-31.12
-34.97
-38.38
-40.51
-40.45
-37.59
-31.86
-23.79
-14.49
-5.22
2.94
9.35
13.88
16.75
18.29
18.77
18.37
17.25
15.62
13.82
12.20
11.08
10.64
10.83
11.46
12.22
12.78
12.95
12.64
11.95
11.03
10.04
9.04
7.97
6.66
4.96
2.81
0.30
-2.36
-4.94
-7.34
-9.58
-11.81
-14.15
-16.71
-19.50
-22.53
-25.78
-29.18
-32.56
-35.50
-37.44
-37.72
-35.83
-31.66
-25.56
-18.26
-10.67
-3.66
2.19
6.59
9.50
11.04
11.40
10.78
9.38
7.46
5.37
3.51
2.23
1.76
2.08
2.97
4.09
5.09
5.77
6.06
5.98
5.55
4.69
3.33
1.45
-0.81
-3.17
-5.33
-7.07
-8.44
-9.72
-11.35
-13.72
-17.05
-21.22
-25.79
-30.06
-33.23
-34.59
-33.66
-30.30
-24.75
-17.63
-9.83
-2.31
4.08
8.84
11.88
13.43
13.81
13.34
12.16
10.41
8.26
6.06
4.23
3.04
2.54
2.48
2.53
2.49
2.37
2.37
2.64
3.14
3.61
3.64
2.87
1.16
-1.35
-4.39
-7.59
-10.71
-13.56
-16.10
-18.38
-20.54
-22.84
-25.54
-28.81
-32.49
-36.02
-38.49
-38.95
-36.74
-31.84
-24.85
-16.78
-8.73
-1.56
4.31
8.81
12.01
13.98
14.80
14.54
13.37
11.63
9.75
8.14
7.08
6.67
6.78
7.15
7.48
7.57
7.39
7.08
6.86
6.81
6.90
6.87
6.35
5.06
2.89
-0.07
-3.49
-6.95
-10.07
-12.64
-14.65
-16.39
-18.29
-20.81
-24.22
-28.46
-33.05
-37.12
-39.70
-39.92
-37.31
-31.98
-24.48
-15.74
-6.79
1.47
8.46
13.88
17.69
19.93
20.67
20.04
18.33
16.00
13.69
11.99
11.28
11.63
12.77
14.25
15.59
16.40
16.55
16.05
15.08
13.88
12.69
11.61
10.57
9.34
7.62
5.22
2.20
-1.21
-4.69
-7.96
-10.92
-13.59
-16.11
-18.59
-21.15
-23.96
-27.16
-30.79
-34.62
-38.04
-40.12
-39.91
-36.79
-30.76
-22.52
-13.22
-4.09
3.89
10.20
14.71
17.53
18.85
18.85
17.71
15.76
13.49
11.47
10.18
9.88
10.50
11.71
13.08
14.21
14.86
15.01
14.75
14.22
13.51
12.56
11.25
9.41
7.00
4.15
1.20
-1.49
-3.67
-5.38
-6.93
-8.80
-11.38
-14.88
-19.17
-23.91
-28.61
-32.59
-35.09
-35.39
-32.99
-27.81
-20.37
-11.63
-2.71
5.39
12.13
17.34
21.11
23.58
24.81
24.82
23.75
21.89
19.67
17.54
15.86
14.84
14.53
14.88
15.76
16.98
18.28
19.36
19.94
19.81
18.87
17.25
15.17
12.90
10.64
8.43
6.15
3.64
0.78
-2.38
-5.61
-8.73
-11.56
-14.16
-16.67
-19.27
-22.12
-25.33
-29.03
-33.25
-37.88
-42.36
-45.77
-46.96
-44.99
-39.50
-30.98
-20.61
-9.88
-0.09
7.96
14.05
18.38
21.29
23.02
23.77
23.69
22.98
21.88
20.74
19.81
19.26
19.15
19.39
19.92
20.64
21.54
22.56
23.61
24.46
24.84
24.38
22.88
20.35
17.10
13.60
10.36
7.65
5.39
3.25
0.81
-2.17
-5.63
-9.30
-12.84
-16.05
-18.93
-21.68
-24.58
-27.91
-31.85
-36.49
-41.59
-46.54
-50.29
-51.58
-49.45
-43.55
-34.50
-23.64
-12.59
-2.70
5.30
11.31
15.61
18.53
20.28
20.93
20.61
19.56
18.18
16.91
16.08
15.81
16.05
16.58
17.24
17.93
18.70
19.57
20.51
21.32
21.67
21.22
19.83
17.58
14.73
11.58
8.31
4.93
1.37
-2.37
-6.16
-9.76
-12.96
-15.76
-18.42
-21.39
-25.11
-29.75
-35.05
-40.27
-44.38
-46.33
-45.38
-41.28
-34.37
-25.37
-15.25
-4.97
4.66
12.95
19.43
23.82
26.12
26.60
25.73
24.17
22.53
21.28
20.67
20.69
21.18
21.88
22.61
23.27
23.88
24.46
24.96
25.24
25.05
24.20
22.62
20.44
17.90
15.26
12.66
10.07
7.40
4.44
1.13
-2.51
-6.38
-10.34
-14.27
-18.09
-21.82
-25.50
-29.33
-33.53
-38.35
-43.82
-49.63
-54.99
-58.76
-59.70
-56.88
-50.09
-39.94
-27.77
-15.15
-3.47
6.41
14.21
20.03
24.13
26.72
28.01
28.24
27.77
27.08
26.57
26.42
26.59
26.85
27.03
27.13
27.33
27.85
28.74
29.82
30.69
31.00
30.50
29.18
27.20
24.74
22.01
19.13
16.13
12.95
9.45
5.50
1.05
-3.77
-8.65
-13.24
-17.22
-20.54
-23.44
-26.41
-30.00
-34.64
-40.41
-46.93
-53.28
-58.13
-60.12
-58.24
-52.22
-42.60
-30.64
-17.84
-5.62
5.01
13.51
19.68
23.59
25.49
25.79
24.96
23.51
21.88
20.37
19.25
18.72
18.88
19.72
21.04
22.46
23.59
24.12
23.99
23.33
22.39
21.29
19.97
18.22
15.80
12.57
8.63
4.26
-0.14
-4.23
-7.77
-10.79
-13.55
-16.44
-19.94
-24.40
-29.95
-36.39
-43.10
-49.12
-53.24
-54.31
-51.54
-44.82
-34.81
-22.80
-10.33
1.16
10.79
18.21
23.57
27.20
29.44
30.47
30.40
29.40
27.83
26.28
25.44
25.88
27.87
31.23
35.39
39.53
42.89
44.93
45.44
44.50
42.36
39.25
35.41
31.03
26.24
21.17
15.93
10.66
5.49
0.56
-4.09
-8.50
-12.78
-17.13
-21.65
-26.48
-31.71
-37.38
-43.45
-49.61
-55.13
-58.92
-59.76
-56.68
-49.43
-38.65
-25.72
-12.32
0.03
10.34
18.23
23.78
27.29
29.05
29.27
28.11
25.90
23.18
20.64
18.99
18.64
19.57
21.30
23.16
24.52
25.05
24.80
24.07
23.21
22.40
21.65
20.75
19.47
17.55
14.80
11.15
6.69
1.63
-3.71
-8.97
-13.89
-18.33
-22.32
-26.03
-29.76
-33.85
-38.54
-43.83
-49.33
-54.31
-57.79
-58.78
-56.56
-50.98
-42.43
-31.76
-19.98
-8.03
3.33
13.56
22.21
28.91
33.41
35.67
36.00
35.04
33.59
32.37
31.76
31.76
32.04
32.20
31.95
31.22
30.12
28.84
27.59
26.53
25.72
24.91
23.27
19.40
11.87
-0.06
-15.58
-32.21
-46.49
-55.43
-57.88
-55.09
-50.12
-46.39
-46.27
-50.47
-58.24
-68.19
-78.86
-88.78
-96.27
-99.29
-95.92
-85.32
-68.38
-47.79
-27.06
-9.25
4.09
13.16
19.25
23.73
27.30
29.81
30.78
29.93
27.53
24.33
21.17
18.56
16.64
15.26
14.30
13.73
13.59
13.88
14.46
15.02
15.21
14.76
13.51
11.54
9.05
6.30
3.51
0.85
-1.56
-3.64
-5.34
-6.63
-7.61
-8.50
-9.69
-11.62
-14.55
-18.34
-22.33
-25.45
-26.46
-24.43
-18.87
-9.96
1.57
14.61
27.90
40.22
50.66
58.68
64.17
67.32
68.50
68.15
66.69
64.58
62.30
60.38
59.21
58.93
59.33
59.89
60.05
59.45
58.07
56.16
54.05
51.94
49.74
47.19
43.99
40.07
35.62
31.04
26.72
22.85
19.32
15.82
12.00
7.56
2.45
-3.28
-9.40
-15.53
-21.09
-25.32
-27.44
-26.93
-23.79
-18.58
-12.31
-5.97
-0.25
4.57
8.51
11.51
13.28
13.36
11.43
7.60
2.56
-2.54
-6.55
-8.66
-8.65
-6.92
-4.20
-1.36
0.79
1.64
0.80
-1.86
-6.17
-11.57
-17.24
-22.26
-25.92
-28.02
-28.94
-29.47
-30.59
-33.06
-37.21
-42.87
-49.47
-56.02
-61.39
-64.33
-63.83
-59.29
-50.81
-39.24
-25.98
-12.62
-0.52
9.46
17.04
22.34
25.68
27.34
27.45
26.04
23.22
19.27
14.80
10.55
7.23
5.24
4.62
5.12
6.40
8.25
10.67
13.72
17.40
21.54
25.74
29.56
32.57
34.48
35.13
34.43
32.36
28.96
24.46
19.23
13.88
9.09
5.54
3.68
3.62
5.19
7.97
11.51
15.45
19.62
23.94
28.35
32.74
36.85
40.25
42.39
42.67
40.54
35.84
29.00
21.12
13.76
8.51
6.46
7.91
12.26
18.36
24.89
30.72
35.06
37.54
38.04
36.75
34.02
30.40
26.49
22.75
19.32
15.94
12.09
7.20
1.02
-6.19
-13.63
-20.13
-24.51
-26.02
-24.58
-20.88
-16.19
-11.96
-9.18
-8.18
-8.49
-9.23
-9.55
-9.02
-7.81
-6.44
-5.46
-5.15
-5.44
-6.16
-7.21
-8.65
-10.67
-13.38
-16.64
-20.04
-23.05
-25.20
-26.22
-26.08
-24.98
-23.26
-21.26
-19.27
-17.47
-16.02
-15.02
-14.65
-15.01
-16.09
-17.62
-19.02
-19.49
-18.28
-14.87
-9.30
-2.08
5.89
13.66
20.40
25.65
29.27
31.41
32.33
32.26
31.33
29.55
26.90
23.49
19.65
15.86
12.64
10.33
8.96
8.25
7.77
7.17
6.24
5.01
3.58
2.05
0.44
-1.35
-3.36
-5.61
-8.14
-10.94
-14.11
-17.71
-21.72
-25.92
-29.88
-32.93
-34.33
-33.47
-30.07
-24.35
-17.00
-9.10
-1.71
4.31
8.59
11.20
12.49
12.83
12.44
11.40
9.76
7.68
5.49
3.61
2.33
1.70
1.53
1.46
1.25
0.78
0.13
-0.56
-1.28
-2.19
-3.53
-5.51
-8.15
-11.18
-14.25
-17.01
-19.35
-21.46
-23.65
-26.22
-29.23
-32.42
-35.25
-36.99
-36.99
-34.83
-30.53
-24.48
-17.47
-10.34
-3.87
1.48
5.55
8.41
10.20
11.06
11.11
10.46
9.33
7.98
6.63
5.38
4.25
3.18
2.20
1.41
0.95
0.85
0.95
0.94
0.47
-0.72
-2.69
-5.28
-8.16
-10.99
-13.48
-15.52
-17.18
-18.75
-20.58
-22.98
-26.04
-29.52
-32.77
-35.00
-35.40
-33.48
-29.20
-22.96
-15.51
-7.74
-0.54
5.40
9.63
12.06
12.84
12.35
11.16
9.85
8.93
8.68
9.18
10.29
11.75
13.35
15.01
16.78
18.73
20.88
22.93
24.32
24.24
21.87
16.68
8.72
-1.20
-11.64
-20.89
-27.57
-31.08
-31.81
-30.90
-29.73
-29.33
-30.06
-31.59
-33.22
-34.33
-34.60
-34.02
-32.69
-30.56
-27.48
-23.23
-17.80
-11.38
-4.41
2.62
9.22
14.94
19.18
21.18
20.07
15.21
6.52
-5.27
-18.72
-32.03
-43.59
-52.32
-57.86
-60.52
-61.05
-60.29
-59.02
-57.68
-56.45
-55.26
-53.85
-52.01
-49.64
-46.77
-43.66
-40.78
-38.63
-37.71
-38.20
-39.83
-41.84
-43.08
-42.41
-39.05
-32.74
-23.83
-13.05
-1.28
10.60
21.87
32.02
40.87
48.60
55.51
61.55
66.11
68.03
66.32
60.94
53.30
45.95
41.38
40.79
43.32
46.56
47.81
45.53
40.00
32.93
26.26
21.09
17.25
13.73
9.54
4.36
-1.38
-6.88
-11.55
-15.49
-19.41
-24.27
-30.62
-38.21
-45.92
-52.02
-54.82
-53.32
-47.60
-38.74
-28.45
-18.45
-9.87
-3.15
1.92
5.74
8.59
10.45
11.13
10.56
8.92
6.71
4.62
3.21
2.80
3.35
4.52
5.79
6.65
6.75
5.99
4.53
2.71
0.95
-0.53
-1.73
-2.89
-4.38
-6.57
-9.67
-13.72
-18.56
-23.80
-28.74
-32.47
-34.00
-32.53
-27.80
-20.19
-10.65
-0.39
9.35
17.69
24.09
28.44
30.85
31.60
31.02
29.36
26.91
23.93
20.75
17.74
15.28
13.66
12.92
12.83
12.95
12.84
12.19
10.89
9.02
6.70
4.04
1.09
-2.10
-5.45
-8.96
-12.68
-16.83
-21.66
-27.22
-33.14
-38.56
-42.23
-42.92
-39.84
-32.96
-23.07
-11.53
0.17
10.79
19.61
26.35
31.05
33.82
34.80
34.11
31.99
28.90
25.48
22.38
20.04
18.62
17.94
17.68
17.47
17.05
16.31
15.20
13.74
11.96
9.87
7.49
4.83
1.93
-1.15
-4.33
-7.60
-11.05
-14.87
-19.29
-24.41
-29.92
-35.04
-38.59
-39.33
-36.39
-29.62
-19.72
-8.09
3.66
14.10
22.34
28.12
31.65
33.40
33.82
33.26
31.93
29.99
27.64
25.15
22.81
20.88
19.49
18.62
18.17
17.91
17.65
17.17
16.30
14.93
12.99
10.51
7.57
4.34
1.00
-2.31
-5.53
-8.74
-12.19
-16.16
-20.85
-26.27
-32.00
-37.26
-40.97
-42.06
-39.77
-33.94
-25.10
-14.40
-3.28
6.87
15.04
20.74
24.08
25.51
25.66
25.08
24.09
22.82
21.28
19.50
17.58
15.76
14.31
13.41
13.06
13.06
13.07
12.75
11.84
10.26
8.10
5.52
2.76
-0.01
-2.69
-5.31
-8.00
-11.00
-14.56
-18.85
-23.82
-29.05
-33.73
-36.80
-37.23
-34.33
-28.08
-19.10
-8.55
2.20
11.91
19.72
25.22
28.47
29.83
29.73
28.62
26.82
24.65
22.42
20.47
19.12
18.53
18.59
18.93
19.04
18.54
17.39
15.83
14.27
12.99
11.93
10.76
9.04
6.51
3.20
-0.56
-4.29
-7.67
-10.61
-13.29
-16.10
-19.38
-23.35
-28.03
-33.18
-38.24
-42.45
-44.85
-44.50
-40.79
-33.66
-23.79
-12.40
-1.00
9.09
17.08
22.77
26.46
28.60
29.58
29.54
28.52
26.65
24.27
21.90
20.09
19.19
19.19
19.81
20.60
21.18
21.37
21.17
20.69
20.05
19.21
18.08
16.44
14.19
11.30
7.94
4.38
0.94
-2.16
-4.86
-7.29
-9.72
-12.43
-15.58
-19.25
-23.39
-27.87
-32.50
-36.92
-40.57
-42.70
-42.56
-39.62
-33.85
-25.78
-16.43
-6.93
1.71
8.93
14.53
18.53
21.04
22.07
21.75
20.31
18.28
16.29
14.88
14.26
14.34
14.74
15.13
15.31
15.27
15.12
14.89
14.55
13.98
13.11
11.88
10.23
8.12
5.48
2.37
-1.06
-4.48
-7.54
-10.05
-12.03
-13.76
-15.67
-18.23
-21.73
-26.22
-31.37
-36.42
-40.30
-41.85
-40.20
-35.16
-27.26
-17.69
-7.83
1.18
8.73
14.70
19.28
22.69
25.00
26.16
26.15
25.08
23.28
21.26
19.48
18.30
17.78
17.75
17.87
17.81
17.38
16.61
15.68
14.80
14.06
13.39
12.58
11.38
9.66
7.41
4.71
1.63
-1.74
-5.29
-8.86
-12.22
-15.17
-17.63
-19.75
-21.90
-24.58
-28.15
-32.60
-37.44
-41.68
-44.10
-43.64
-39.73
-32.58
-23.10
-12.62
-2.51
6.18
12.92
17.66
20.69
22.42
23.25
23.50
23.37
22.98
22.39
21.61
20.69
19.68
18.67
17.71
16.84
16.06
15.37
14.80
14.39
14.09
13.80
13.33
12.46
11.04
9.00
6.41
3.47
0.38
-2.68
-5.66
-8.53
-11.38
-14.26
-17.24
-20.37
-23.73
-27.39
-31.36
-35.52
-39.55
-42.92
-44.86
-44.63
-41.69
-35.99
-27.99
-18.63
-9.07
-0.35
6.80
12.05
15.41
17.06
17.34
16.58
15.19
13.58
12.15
11.17
10.70
10.58
10.57
10.44
10.11
9.66
9.24
9.03
9.08
9.31
9.48
9.22
8.20
6.17
3.11
-0.78
-5.08
-9.31
-13.07
-16.15
-18.62
-20.79
-23.11
-25.99
-29.62
-33.81
-37.95
-41.11
-42.25
-40.57
-35.73
-28.04
-18.44
-8.17
1.50
9.67
15.89
20.14
22.70
23.91
24.07
23.42
22.16
20.57
18.98
17.69
16.97
16.84
17.15
17.59
17.83
17.66
17.07
16.26
15.46
14.77
14.06
13.03
11.34
8.79
5.43
1.54
-2.55
-6.51
-10.16
-13.44
-16.36
-19.00
-21.52
-24.16
-27.29
-31.20
-35.97
-41.25
-46.22
-49.70
-50.50
-47.80
-41.44
-32.06
-20.86
-9.32
1.27
10.11
16.90
21.78
25.05
26.98
27.76
27.51
26.43
24.82
23.10
21.71
20.98
20.98
21.53
22.22
22.62
22.39
21.47
20.06
18.55
17.28
16.40
15.81
15.12
13.86
11.70
8.59
4.75
0.61
-3.42
-7.08
-10.36
-13.37
-16.34
-19.52
-23.10
-27.22
-31.87
-36.85
-41.63
-45.38
-47.08
-45.80
-41.07
-33.13
-22.90
-11.80
-1.19
7.88
14.90
19.86
22.96
24.54
24.83
24.06
22.46
20.36
18.19
16.37
15.25
14.91
15.20
15.79
16.33
16.56
16.45
16.12
15.69
15.20
14.46
13.13
10.95
7.81
3.92
-0.28
-4.25
-7.61
-10.23
-12.34
-14.51
-17.38
-21.41
-26.60
-32.44
-37.94
-41.90
-43.28
-41.43
-36.32
-28.43
-18.68
-8.15
2.12
11.30
18.85
24.52
28.29
30.24
30.53
29.38
27.14
24.31
21.51
19.36
18.24
18.18
18.78
19.50
19.80
19.44
18.53
17.36
16.23
15.18
13.99
12.29
9.81
6.53
2.74
-1.11
-4.64
-7.70
-10.44
-13.25
-16.55
-20.62
-25.54
-30.99
-36.44
-41.09
-44.02
-44.43
-41.77
-35.97
-27.53
-17.39
-6.71
3.43
12.17
19.07
23.99
27.00
28.32
28.21
27.04
25.27
23.41
21.95
21.17
21.10
21.47
21.87
22.00
21.74
21.21
20.65
20.18
19.73
18.98
17.53
15.14
11.86
8.03
4.16
0.65
-2.31
-4.85
-7.29
-9.94
-13.07
-16.79
-21.17
-26.14
-31.54
-36.86
-41.25
-43.62
-43.00
-38.90
-31.55
-21.95
-11.42
-1.29
7.50
14.47
19.52
22.74
24.30
24.44
23.51
21.98
20.35
19.02
18.20
17.86
17.79
17.74
17.54
17.14
16.63
16.11
15.61
15.04
14.12
12.62
10.43
7.60
4.36
1.00
-2.24
-5.25
-8.08
-10.87
-13.84
-17.20
-21.11
-25.66
-30.71
-35.87
-40.42
-43.46
-44.11
-41.77
-36.40
-28.52
-19.15
-9.50
-0.65
6.72
12.43
16.61
19.51
21.36
22.20
22.05
21.02
19.39
17.63
16.19
15.36
15.15
15.29
15.48
15.57
15.63
15.84
16.26
16.71
16.72
15.77
13.53
10.10
5.94
1.72
-2.05
-5.15
-7.77
-10.31
-13.24
-16.86
-21.23
-26.17
-31.16
-35.47
-38.21
-38.54
-35.90
-30.28
-22.22
-12.76
-3.12
5.59
12.67
17.90
21.46
23.73
25.06
25.70
25.80
25.51
24.98
24.40
23.93
23.68
23.69
23.91
24.24
24.52
24.56
24.23
23.49
22.38
21.00
19.38
17.47
15.17
12.43
9.40
6.35
3.56
1.10
-1.20
-3.64
-6.49
-9.78
-13.32
-16.80
-19.98
-22.85
-25.62
-28.58
-31.95
-35.77
-39.76
-43.29
-45.46
-45.29
-42.11
-35.78
-26.89
-16.60
-6.30
2.85
10.16
15.54
19.30
21.88
23.65
24.77
25.29
25.23
24.76
24.14
23.70
23.70
24.19
25.04
25.94
26.58
26.83
26.75
26.52
26.27
25.96
25.39
24.30
22.53
20.12
17.31
14.40
11.70
9.37
7.42
5.73
4.05
2.14
-0.23
-3.11
-6.36
-9.69
-12.79
-15.51
-17.91
-20.24
-22.75
-25.64
-28.97
-32.71
-36.75
-40.76
-44.16
-46.11
-45.68
-42.28
-35.91
-27.35
-17.91
-8.94
-1.37
4.45
8.75
11.93
14.32
16.00
16.92
17.00
16.38
15.37
14.39
13.74
13.57
13.83
14.41
15.17
16.03
16.98
17.99
18.97
19.72
20.02
19.58
18.24
16.00
13.04
9.72
6.47
3.61
1.24
-0.77
-2.69
-4.78
-7.12
-9.59
-11.97
-14.13
-16.13
-18.23
-20.79
-24.02
-27.86
-31.88
-35.41
-37.65
-37.93
-35.86
-31.45
-25.07
-17.45
-9.41
-1.75
5.00
10.57
15.00
18.38
20.80
22.22
22.59
21.96
20.64
19.16
18.09
17.83
18.42
19.59
20.85
21.79
22.20
22.08
21.55
20.72
19.63
18.31
16.81
15.19
13.51
11.78
10.01
8.17
6.31
4.46
2.70
0.98
-0.76
-2.67
-4.80
-7.19
-9.72
-12.24
-14.62
-16.77
-18.73
-20.72
-23.07
-26.12
-30.00
-34.56
-39.16
-42.88
-44.71
-43.86
-40.04
-33.52
-25.12
-15.88
-6.93
0.87
7.00
11.35
14.10
15.66
16.41
16.67
16.61
16.35
16.01
15.72
15.61
15.73
16.05
16.46
16.85
17.15
17.38
17.58
17.71
17.65
17.20
16.17
14.53
12.32
9.72
6.93
4.16
1.55
-0.80
-2.93
-4.98
-7.09
-9.36
-11.76
-14.16
-16.43
-18.50
-20.45
-22.43
-24.68
-27.40
-30.70
-34.44
-38.20
-41.25
-42.63
-41.45
-37.25
-30.24
-21.37
-12.01
-3.51
3.25
8.06
11.26
13.38
14.89
15.95
16.48
16.35
15.57
14.39
13.22
12.48
12.39
12.92
13.84
14.82
15.63
16.11
16.16
15.74
14.83
13.44
11.72
9.83
7.94
6.10
4.20
2.03
-0.54
-3.50
-6.58
-9.47
-11.96
-14.07
-16.10
-18.42
-21.37
-25.03
-29.24
-33.63
-37.58
-40.36
-41.19
-39.48
-35.00
-28.08
-19.57
-10.65
-2.40
4.47
9.76
13.63
16.35
18.10
18.95
18.94
18.26
17.28
16.40
15.92
15.91
16.17
16.45
16.56
16.53
16.55
16.84
17.51
18.42
19.16
19.24
18.32
16.32
13.54
10.45
7.50
4.95
2.76
0.69
-1.56
-4.17
-7.08
-10.08
-12.90
-15.36
-17.45
-19.34
-21.27
-23.52
-26.33
-29.83
-33.92
-38.22
-42.00
-44.28
-44.09
-40.73
-34.21
-25.26
-15.18
-5.47
2.72
8.84
12.96
15.55
17.16
18.11
18.48
18.24
17.43
16.21
14.91
13.88
13.32
13.22
13.40
13.58
13.58
13.34
12.90
12.31
11.56
10.59
9.33
7.76
5.90
3.79
1.41
-1.32
-4.45
-7.95
-11.66
-15.32
-18.68
-21.62
-24.20
-26.71
-29.49
-32.79
-36.65
-40.75
-44.45
-46.92
-47.32
-45.12
-40.18
-32.85
-23.88
-14.19
-4.71
3.82
10.93
16.40
20.22
22.54
23.59
23.66
23.07
22.16
21.28
20.70
20.62
21.06
21.91
22.93
23.86
24.46
24.66
24.51
24.10
23.56
22.90
22.07
20.94
19.38
17.30
14.69
11.60
8.15
4.43
0.59
-3.19
-6.74
-9.93
-12.76
-15.35
-18.03
-21.14
-24.97
-29.54
-34.50
-39.06
-42.14
-42.68
-39.92
-33.79
-24.95
-14.65
-4.35
4.75
12.00
17.23
20.68
22.68
23.49
23.30
22.35
20.96
19.55
18.47
17.90
17.81
18.04
18.35
18.61
18.72
18.69
18.55
18.33
18.06
17.74
17.29
16.55
15.37
13.65
11.41
8.81
6.04
3.27
0.58
-2.08
-4.80
-7.64
-10.64
-13.80
-17.10
-20.64
-24.51
-28.80
-33.46
-38.17
-42.29
-44.93
-45.20
-42.50
-36.74
-28.52
-18.89
-9.07
-0.09
7.41
13.25
17.52
20.44
22.21
22.93
22.71
21.73
20.26
18.70
17.45
16.83
17.00
17.90
19.28
20.77
21.97
22.65
22.72
22.27
21.42
20.21
18.62
16.58
14.07
11.16
8.06
5.04
2.29
-0.11
-2.30
-4.47
-6.83
-9.47
-12.35
-15.41
-18.68
-22.32
-26.46
-31.03
-35.51
-38.93
-40.13
-38.16
-32.68
-24.22
-13.93
-3.30
6.38
14.27
20.08
23.98
26.33
27.53
27.93
27.78
27.28
26.59
25.91
25.37
25.08
25.01
25.05
25.02
24.80
24.33
23.65
22.82
21.86
20.73
19.31
17.48
15.18
12.36
9.09
5.45
1.59
-2.34
-6.18
-9.79
-13.10
-16.20
-19.21
-22.37
-25.90
-29.93
-34.37
-38.86
-42.76
-45.21
-45.41
-42.82
-37.45
-29.79
-20.74
-11.36
-2.61
4.72
10.17
13.55
14.97
14.79
13.53
11.76
9.92
8.23
6.65
4.98
3.05
0.91
-1.19
-2.85
-3.76
-3.86
-3.48
-3.22
-3.74
-5.51
-8.60
-12.72
-17.33
-21.92
-26.02
-29.28
-31.47
-32.58
-33.11
-34.21
-37.57
-44.65
-55.71
-68.97
-80.81
-86.88
-83.88
-70.94
-49.82
-24.01
3.05
29.17
53.88
77.65
100.81
122.78
142.18
157.44
167.60
172.79
173.87
171.96
167.85
161.67
153.01
141.58
128.06
114.57
104.04
98.97
99.91
104.69
109.23
109.33
102.61
89.61
73.14
56.42
41.01
26.19
10.15
-7.78
-25.69
-39.51
-45.35
-42.13
-32.71
-22.66
-17.25
-18.64
-24.91
-31.38
-33.60
-29.86
-21.94
-13.63
-8.28
-7.10
-8.82
-11.18
-12.67
-13.44
-15.01
-19.12
-26.34
-35.59
-44.65
-51.41
-54.91
-55.81
-55.76
-56.34
-58.03
-59.90
-60.22
-57.52
-51.60
-43.69
-35.98
-30.56
-28.52
-29.51
-31.93
-33.65
-32.89
-28.84
-21.81
-12.98
-3.81
4.33
10.53
14.28
15.41
13.99
10.29
4.91
-1.29
-7.34
-12.43
-16.14
-18.54
-20.08
-21.30
-22.63
-24.31
-26.38
-28.72
-31.11
-33.17
-34.38
-34.29
-32.68
-29.76
-26.14
-22.43
-18.92
-15.16
-9.84
-0.99
13.36
34.28
61.05
90.61
117.87
136.99
143.14
134.30
111.98
80.78
46.79
15.82
-7.89
-22.37
-28.12
-28.07
-27.18
-31.26
-44.87
-68.96
-99.51
-128.24
-145.66
-145.06
-125.47
-92.13
-54.08
-20.51
2.41
12.78
12.25
4.07
-8.64
-23.70
-39.87
-56.24
-71.85
-85.49
-96.06
-102.88
-106.05
-106.38
-105.16
-103.48
-101.68
-99.00
-93.67
-83.61
-67.34
-44.78
-17.44
11.98
40.52
65.99
87.56
105.58
120.89
133.98
144.56
151.77
154.74
153.35
148.39
141.25
133.21
124.86
115.94
105.65
93.21
78.35
61.50
43.64
25.93
9.30
-5.69
-18.86
-30.24
-39.86
-47.70
-53.69
-57.85
-60.38
-61.60
-61.85
-61.40
-60.37
-58.80
-56.74
-54.36
-51.95
-49.86
-48.33
-47.41
-46.99
-46.79
-46.58
-46.22
-45.84
-45.72
-46.24
-47.75
-50.40
-54.09
-58.43
-62.82
-66.44
-68.45
-68.11
-64.97
-58.89
-50.17
-39.48
-27.73
-16.01
-5.34
3.55
10.32
15.06
18.20
20.28
21.76
22.86
23.62
24.03
24.14
24.07
23.97
23.83
23.45
22.49
20.65
17.80
14.12
10.03
6.10
2.92
0.86
-0.01
0.01
0.26
-0.15
-2.08
-6.15
-12.55
-20.90
-30.34
-39.65
-47.54
-52.91
-55.22
-54.50
-51.42
-47.04
-42.48
-38.56
-35.53
-33.09
-30.60
-27.52
-23.83
-20.11
-17.37
-16.60
-18.25
-21.99
-26.80
-31.32
-34.39
-35.35
-34.16
-31.25
-27.19
-22.53
-17.69
-13.03
-8.94
-5.87
-4.18
-4.12
-5.59
-8.15
-11.21
-14.31
-17.37
-20.75
-25.05
-30.58
-37.12
-43.73
-49.04
-51.75
-51.10
-47.18
-40.84
-33.31
-25.73
-18.73
-12.44
-6.64
-1.16
3.89
8.08
10.90
12.02
11.53
9.84
7.50
4.94
2.40
-0.05
-2.27
-3.98
-4.84
-4.68
-3.64
-2.22
-1.11
-0.88
-1.84
-3.90
-6.70
-9.83
-12.95
-15.89
-18.68
-21.56
-24.92
-29.23
-34.84
-41.63
-48.74
-54.48
-56.75
-53.65
-44.33
-29.36
-10.63
9.27
27.97
43.85
56.33
65.47
71.63
75.06
75.92
74.47
71.23
67.00
62.61
58.71
55.56
53.09
51.06
49.18
47.31
45.39
43.48
41.54
39.47
37.04
33.99
30.14
25.56
20.55
15.52
10.80
6.36
1.80
-3.51
-10.06
-17.86
-26.29
-34.12
-39.88
-42.24
-40.43
-34.34
-24.61
-12.43
0.72
13.38
24.40
33.06
39.13
42.69
44.03
43.58
41.76
39.13
36.23
33.54
31.39
29.89
28.97
28.49
28.34
28.46
28.81
29.23
29.36
28.73
26.95
23.91
19.91
15.57
11.50
8.00
4.92
1.68
-2.39
-7.82
-14.70
-22.67
-30.94
-38.39
-43.76
-45.81
-43.65
-37.00
-26.42
-13.26
0.70
13.70
24.43
32.23
37.01
39.10
39.01
37.36
34.77
31.89
29.31
27.41
26.32
25.86
25.63
25.28
24.61
23.66
22.62
21.67
20.79
19.79
18.35
16.21
13.27
9.62
5.51
1.16
-3.27
-7.69
-12.11
-16.70
-21.71
-27.49
-34.21
-41.57
-48.61
-53.77
-55.38
-52.22
-44.12
-32.02
-17.73
-3.29
9.65
20.20
28.21
33.95
37.72
39.71
