1611125562.00
64.000000
-0.00
-0.00
-0.00
-0.00
-0.00
-0.00
-0.00
-0.00
-0.00
-0.00
0.00
0.01
0.01
-0.00
-0.03
-0.05
-0.05
0.00
0.13
0.36
0.66
1.01
1.37
1.72
2.06
2.40
2.79
3.24
3.80
4.42
5.06
5.66
6.20
6.68
7.15
7.68
8.31
9.14
10.09
11.04
11.88
12.56
13.14
13.76
14.65
15.96
17.91
20.32
22.90
25.38
27.58
29.57
31.68
34.32
37.81
42.54
48.15
54.10
59.83
64.97
69.58
74.14
79.34
85.71
93.76
103.00
112.62
121.73
129.77
136.75
143.30
150.75
157.77
166.64
177.95
191.79
206.97
220.57
228.25
225.36
208.53
176.87
132.76
80.05
23.07
-34.94
-92.44
-149.16
-205.23
-260.37
-313.74
-363.87
-409.83
-450.91
-486.50
-515.74
-537.23
-549.22
-549.96
-538.37
-514.21
-478.67
-433.88
-382.45
-327.02
-269.84
-212.63
-156.66
-102.95
-52.37
-5.90
35.58
71.43
101.35
125.50
144.38
158.69
169.15
176.37
180.75
182.57
182.07
179.51
175.23
169.65
163.18
156.15
148.81
141.30
133.69
126.02
118.33
110.69
103.16
95.80
88.68
81.83
75.25
68.95
62.95
57.25
51.86
46.78
42.03
37.59
33.45
29.61
26.07
22.81
19.83
17.11
14.67
12.48
10.54
8.83
7.35
6.07
4.97
4.05
3.27
2.62
2.09
1.65
1.30
1.01
0.79
0.61
0.48
0.37
0.30
0.24
0.21
0.18
0.17
0.17
0.19
0.22
0.27
0.32
0.35
0.35
0.32
0.26
0.20
0.16
0.16
0.21
0.27
0.34
0.37
0.37
0.34
0.30
0.31
0.38
0.51
0.67
0.81
0.89
0.88
0.82
0.76
0.81
1.01
1.36
1.77
2.12
2.27
2.19
1.95
1.71
1.68
2.01
2.68
3.50
4.19
4.47
4.24
3.65
3.01
2.75
3.12
4.13
5.46
6.61
7.11
6.77
5.75
4.53
3.58
3.21
3.30
3.39
2.85
1.04
-2.46
-7.89
-15.28
-24.13
-33.18
-40.45
-43.70
-41.38
-33.46
-21.69
-9.05
1.44
7.95
10.37
9.98
8.51
7.19
6.34
5.64
4.74
3.64
2.75
2.49
2.98
3.91
4.70
4.81
4.02
2.55
0.91
-0.33
-0.85
-0.63
-0.02
0.51
0.54
-0.11
-1.26
-2.59
-3.77
-4.64
-5.26
-5.79
-6.42
-7.23
-8.21
-9.24
-10.19
-10.99
-11.67
-12.32
-13.11
-14.14
-15.44
-16.86
-18.19
-19.21
-19.83
-20.10
-20.13
-20.00
-19.72
-19.16
-18.11
-16.31
-13.45
-9.24
-3.75
2.84
10.15
17.70
24.92
31.37
36.75
40.91
43.81
45.39
45.63
44.53
42.24
39.04
35.36
31.61
28.08
24.86
21.90
19.09
16.39
13.85
11.58
9.65
8.03
6.62
5.29
3.97
2.70
1.58
0.67
-0.10
-0.84
-1.70
-2.74
-3.88
-4.96
-5.84
-6.43
-6.77
-6.94
-7.04
-7.08
-7.02
-6.76
-6.27
-5.57
-4.76
-4.01
-3.49
-3.27
-3.31
-3.51
-3.71
-3.79
-3.71
-3.53
-3.33
-3.17
-3.02
-2.81
-2.45
-1.88
-1.19
-0.54
-0.10
-0.01
-0.29
-0.84
-1.48
-2.06
-2.49
-2.76
-2.93
-3.05
-3.15
-3.24
-3.29
-3.27
-3.15
-2.90
-2.56
-2.24
-2.12
-2.37
-3.04
-3.99
-4.94
-5.61
-5.87
-5.80
-5.63
-5.57
-5.61
-5.59
-5.25
-4.47
-3.34
-2.19
-1.32
-0.92
-0.96
-1.25
-1.61
-1.93
-2.20
-2.44
-2.63
-2.70
-2.58
-2.26
-1.75
-1.12
-0.45
0.22
0.85
1.40
1.83
2.12
2.27
2.34
2.43
2.57
2.79
3.01
3.12
3.03
2.72
2.26
1.84
1.59
1.65
2.00
2.54
3.10
3.56
3.88
4.06
4.14
4.06
3.76
3.21
2.56
2.02
1.85
2.14
2.73
3.29
3.49
3.15
2.34
1.32
0.38
-0.25
-0.52
-0.48
-0.26
-0.01
0.19
0.31
0.38
0.44
0.58
0.80
1.04
1.23
1.30
1.25
1.18
1.20
1.36
1.61
1.92
2.23
2.57
2.91
3.20
3.34
3.27
3.05
2.88
2.97
3.47
4.33
5.35
6.27
6.86
7.10
7.08
6.96
6.84
6.77
6.74
6.74
6.75
6.78
6.79
6.79
6.80
6.83
6.91
7.03
7.18
7.28
7.30
7.24
7.08
6.89
6.73
6.66
6.71
6.86
7.06
7.28
7.53
7.87
8.37
9.04
9.80
10.42
10.70
10.51
9.91
9.10
8.36
7.79
7.34
6.83
6.09
5.13
4.14
3.41
3.11
3.21
3.46
3.49
2.98
1.84
0.23
-1.43
-2.67
-3.11
-2.63
-1.39
0.26
1.94
3.30
4.13
4.32
3.85
2.75
1.10
-0.85
-2.81
-4.53
-5.96
-7.38
-9.31
-12.29
-16.53
-21.73
-27.03
-31.28
-33.42
-32.91
-29.95
-25.48
-20.80
-17.07
-14.94
-14.45
-15.29
-17.07
-19.63
-22.85
-26.44
-29.64
-31.32
-30.35
-26.17
-19.07
-10.13
-0.73
7.98
15.41
21.49
26.41
30.28
33.14
34.96
35.89
36.23
36.39
36.53
36.41
35.46
33.00
28.69
22.68
15.63
8.37
1.61
-4.33
-9.50
-14.13
-18.53
-22.94
-27.54
-32.43
-37.56
-42.70
-47.49
-51.61
-55.00
-57.83
-60.39
-62.80
-64.73
-65.54
-64.46
-60.97
-55.03
-47.04
-37.76
-28.00
-18.53
-9.97
-2.79
2.68
6.37
8.51
9.57
10.19
10.98
12.30
14.21
16.44
18.57
20.23
21.28
21.78
21.94
21.89
21.65
21.15
20.36
19.44
18.57
17.90
17.43
16.98
16.31
15.32
14.09
12.80
11.59
10.50
9.45
8.36
7.27
6.25
5.36
4.49
3.46
2.15
0.59
-0.92
-2.03
-2.50
-2.35
-1.81
-1.15
-0.57
-0.13
0.15
0.24
0.10
-0.30
-0.87
-1.50
-2.08
-2.59
-3.05
-3.45
-3.67
-3.53
-2.83
-1.55
0.19
2.15
4.04
5.61
6.67
7.13
7.00
6.39
5.58
4.83
4.35
4.20
4.23
4.25
4.15
3.98
3.94
4.16
4.64
5.25
5.73
5.96
5.95
5.90
6.05
6.53
7.36
8.37
9.39
10.26
10.96
11.55
12.13
12.79
13.59
14.56
15.70
17.00
18.31
19.39
19.94
19.70
18.59
16.72
14.32
11.48
8.14
4.03
-1.08
-7.20
-14.01
-20.84
-26.97
-31.81
-35.08
-36.85
-37.38
-37.02
-36.06
-34.70
-32.99
-30.86
-28.18
-24.93
-21.20
-17.27
-13.46
-9.99
-6.91
-4.12
-1.52
0.91
3.03
4.64
5.63
6.00
5.92
5.61
5.33
5.26
5.52
6.16
7.13
8.24
9.26
9.97
10.27
10.23
10.05
9.93
9.99
10.24
10.62
11.04
11.42
11.68
11.72
11.42
10.68
9.51
8.01
6.38
4.87
3.68
2.86
2.32
1.86
1.29
0.47
-0.65
-2.02
-3.53
-5.08
-6.54
-7.81
-8.81
-9.43
-9.60
-9.28
-8.52
-7.47
-6.32
-5.25
-4.40
-3.80
-3.35
-2.93
-2.40
-1.72
-0.91
-0.11
0.55
1.03
1.34
1.60
1.96
2.43
2.97
3.41
3.57
3.41
2.99
2.49
2.09
1.86
1.75
1.64
1.38
0.97
0.47
0.01
-0.31
-0.49
-0.59
-0.66
-0.69
-0.64
-0.47
-0.17
0.15
0.38
0.42
0.25
-0.07
-0.42
-0.70
-0.87
-0.98
-1.10
-1.28
-1.51
-1.74
-1.87
-1.82
-1.59
-1.19
-0.69
-0.18
0.24
0.45
0.41
0.10
-0.41
-0.99
-1.52
-1.88
-1.99
-1.87
-1.55
-1.13
-0.70
-0.35
-0.18
-0.20
-0.42
-0.75
-1.08
-1.30
-1.35
-1.26
-1.12
-1.03
-0.98
-0.90
-0.70
-0.33
0.13
0.53
0.68
0.54
0.20
-0.15
-0.30
-0.16
0.28
0.88
1.49
2.01
2.35
2.43
2.23
1.78
1.20
0.70
0.43
0.48
0.78
1.17
1.49
1.63
1.59
1.44
1.25
1.03
0.76
0.44
0.09
-0.21
-0.39
-0.40
-0.30
-0.15
-0.02
0.07
0.16
0.31
0.62
1.07
1.56
1.90
1.94
1.58
0.90
0.09
-0.67
-1.32
-1.86
-2.37
-2.81
-3.03
-2.88
-2.30
-1.43
-0.57
-0.00
0.19
0.11
-0.03
-0.07
-0.02
0.00
-0.10
-0.33
-0.58
-0.78
-0.92
-1.06
-1.32
-1.72
-2.24
-2.79
-3.28
-3.60
-3.68
-3.48
-3.02
-2.42
-1.90
-1.67
-1.89
-2.61
-3.68
-4.92
-6.14
-7.18
-7.96
-8.47
-8.73
-8.86
-9.02
-9.36
-10.00
-10.91
-12.01
-13.19
-14.35
-15.54
-16.84
-18.35
-20.10
-22.03
-24.02
-25.94
-27.71
-29.38
-31.07
-32.93
-35.09
-37.48
-39.95
-42.15
-43.70
-44.34
-43.89
-42.28
-39.41
-35.17
-29.41
-22.11
-13.44
-3.84
6.10
15.80
24.82
32.86
39.77
45.43
49.70
52.48
53.75
53.65
52.46
50.56
48.29
45.89
43.49
41.12
38.72
36.30
33.84
31.41
29.07
26.86
24.80
22.83
20.88
18.87
16.84
14.87
13.04
11.43
10.05
8.84
7.67
6.50
5.37
4.40
3.80
3.70
4.06
4.70
5.29
5.51
5.13
4.20
2.96
1.82
1.09
0.90
1.10
1.41
1.57
1.46
1.16
0.85
0.67
0.68
0.78
0.82
0.73
0.54
0.33
0.19
0.16
0.17
0.14
-0.02
-0.32
-0.71
-1.09
-1.38
-1.53
-1.49
-1.31
-1.03
-0.72
-0.42
-0.12
0.14
0.36
0.49
0.46
0.26
-0.09
-0.49
-0.84
-1.04
-1.09
-1.00
-0.75
-0.33
0.28
1.03
1.74
2.17
2.19
1.84
1.34
1.00
0.98
1.25
1.55
1.56
1.12
0.28
-0.75
-1.73
-2.52
-3.11
-3.56
-3.93
-4.20
-4.30
-4.16
-3.77
-3.18
-2.55
-2.01
-1.66
-1.49
-1.47
-1.51
-1.56
-1.61
-1.68
-1.80
-1.95
-2.11
-2.21
-2.25
-2.25
-2.22
-2.10
-1.83
-1.36
-0.70
0.05
0.68
1.06
1.11
0.90
0.55
0.13
-0.30
-0.71
-1.07
-1.33
-1.45
-1.49
-1.54
-1.73
-2.07
-2.46
-2.69
-2.57
-2.03
-1.19
-0.28
0.46
0.88
0.92
0.64
0.15
-0.42
-0.93
-1.26
-1.40
-1.40
-1.35
-1.36
-1.40
-1.38
-1.16
-0.70
-0.10
0.46
0.73
0.57
0.01
-0.78
-1.52
-1.98
-2.04
-1.76
-1.25
-0.68
-0.16
0.24
0.48
0.52
0.33
-0.05
-0.53
-0.98
-1.26
-1.33
-1.20
-0.94
-0.62
-0.27
0.07
0.37
0.54
0.47
0.12
-0.41
-0.94
-1.20
-1.03
-0.42
0.50
1.47
2.18
2.39
2.00
1.06
-0.14
-1.27
-1.98
-2.16
-1.88
-1.45
-1.18
-1.24
-1.57
-1.97
-2.23
-2.27
-2.17
-2.09
-2.11
-2.19
-2.20
-2.00
-1.56
-0.99
-0.42
-0.00
0.20
0.20
0.04
-0.19
-0.41
-0.58
-0.69
-0.74
-0.76
-0.80
-0.91
-1.14
-1.46
-1.80
-2.01
-1.92
-1.42
-0.50
0.62
1.62
2.14
2.02
1.32
0.32
-0.64
-1.30
-1.60
-1.62
-1.46
-1.21
-0.86
-0.39
0.19
0.79
1.32
1.62
1.64
1.40
1.02
0.63
0.37
0.31
0.42
0.60
0.72
0.66
0.37
-0.12
-0.77
-1.53
-2.31
-3.02
-3.53
-3.72
-3.52
-2.98
-2.22
-1.43
-0.76
-0.31
-0.10
-0.13
-0.39
-0.89
-1.57
-2.31
-2.94
-3.26
-3.17
-2.71
-2.05
-1.45
-1.12
-1.11
-1.33
-1.52
-1.46
-1.00
-0.25
0.57
1.18
1.37
1.15
0.65
0.04
-0.54
-1.06
-1.50
-1.85
-2.01
-1.85
-1.34
-0.57
0.23
0.82
1.02
0.86
0.49
0.13
-0.05
-0.00
0.21
0.49
0.73
0.91
1.01
1.04
1.05
1.00
0.86
0.57
0.12
-0.42
-0.93
-1.26
-1.32
-1.09
-0.67
-0.20
0.17
0.40
0.51
0.53
0.49
0.40
0.26
0.12
0.04
0.09
0.28
0.57
0.89
1.17
1.40
1.59
1.71
1.77
1.78
1.77
1.81
1.91
2.05
2.15
2.13
1.98
1.73
1.45
1.21
1.03
0.88
0.77
0.73
0.81
1.05
1.40
1.76
2.05
2.19
2.18
2.03
1.74
1.34
0.89
0.48
0.17
-0.01
-0.12
-0.25
-0.43
-0.60
-0.62
-0.40
0.02
0.50
0.83
0.87
0.63
0.20
-0.28
-0.73
-1.05
-1.19
-1.07
-0.71
-0.21
0.27
0.50
0.43
0.13
-0.21
-0.39
-0.35
-0.22
-0.16
-0.36
-0.78
-1.32
-1.75
-1.92
-1.75
-1.28
-0.65
-0.02
0.51
0.89
1.16
1.35
1.47
1.50
1.38
1.14
0.87
0.71
0.70
0.80
0.82
0.61
0.16
-0.41
-0.90
-1.18
-1.27
-1.29
-1.33
-1.36
-1.26
-0.95
-0.46
-0.02
0.16
0.00
-0.35
-0.65
-0.73
-0.61
-0.46
-0.44
-0.61
-0.85
-1.01
-1.00
-0.86
-0.75
-0.76
-0.88
-1.01
-1.00
-0.76
-0.32
0.17
0.62
0.94
1.15
1.32
1.50
1.71
1.92
2.06
2.07
1.96
1.75
1.51
1.26
0.94
0.48
-0.13
-0.82
-1.37
-1.58
-1.35
-0.72
0.13
0.94
1.54
1.87
1.99
1.97
1.84
1.62
1.24
0.72
0.14
-0.40
-0.79
-0.98
-0.99
-0.89
-0.80
-0.79
-0.93
-1.15
-1.36
-1.42
-1.23
-0.75
-0.11
0.50
0.88
0.94
0.70
0.31
-0.08
-0.35
-0.43
-0.31
-0.01
0.43
0.92
1.39
1.75
1.94
1.96
1.83
1.59
1.30
1.01
0.73
0.49
0.28
0.06
-0.19
-0.43
-0.63
-0.71
-0.69
-0.65
-0.77
-1.24
-2.12
-3.33
-4.67
-5.89
-6.82
-7.42
-7.83
-8.31
-9.13
-10.48
-12.39
-14.73
-17.22
-19.53
-21.37
-22.59
-23.27
-23.74
-24.54
-26.28
-29.49
-34.31
-40.42
-47.05
-53.12
-57.52
-59.39
-58.24
-53.99
-46.87
-37.30
-25.91
-13.47
-0.84
11.19
22.01
31.39
39.44
46.47
52.80
58.61
63.89
68.50
72.34
75.38
77.81
79.92
81.98
84.09
86.11
87.71
88.46
87.97
86.01
82.54
77.76
72.04
65.90
59.94
54.67
50.25
46.47
42.87
38.98
34.67
30.20
25.98
22.31
19.19
16.41
13.91
11.87
10.63
10.34
10.57
10.38
8.67
4.56
-2.32
-11.81
-23.54
-36.93
-51.27
-65.59
-78.73
-89.71
-98.13
-104.29
-108.95
-112.69
-115.56
-116.93
-116.06
-112.52
-106.45
-98.35
-88.55
-76.95
-63.19
-47.15
-29.55
-11.99
3.49
15.30
22.95
27.20
29.59
31.57
33.96
36.70
39.19
40.71
40.73
38.89
34.86
28.17
18.24
4.69
-12.34
-32.01
-52.90
-73.29
-91.65
-106.84
-118.24
-125.57
-128.68
-127.45
-121.77
-111.67
-97.49
-79.97
-60.17
-39.21
-18.13
2.29
21.47
38.93
54.19
66.86
76.66
83.54
87.72
89.53
89.31
87.44
84.21
80.04
75.40
70.69
66.19
61.97
57.93
54.01
50.27
46.92
44.15
41.95
40.02
37.94
35.38
32.32
29.05
25.98
23.36
21.21
19.27
17.25
15.03
12.74
10.67
9.09
8.11
7.56
7.10
6.39
5.20
3.57
1.65
-0.34
-2.25
-4.08
-5.87
-7.59
-9.08
-10.08
-10.40
-10.07
-9.39
-8.77
-8.49
-8.60
-8.91
-9.13
-9.06
-8.70
-8.18
-7.70
-7.43
-7.44
-7.75
-8.33
-9.17
-10.22
-11.32
-12.29
-12.89
-12.86
-12.10
-10.67
-8.82
-6.91
-5.33
-4.21
-3.50
-2.95
-2.35
-1.73
-1.32
-1.46
-2.31
-3.69
-5.12
-6.07
-6.23
-5.66
-4.76
-3.94
-3.47
-3.33
-3.23
-2.87
-2.06
-0.83
0.56
1.73
2.36
2.23
1.37
0.00
-1.52
-2.80
-3.49
-3.42
-2.58
-1.16
0.55
2.20
3.55
4.50
5.16
5.80
6.60
7.57
8.46
8.86
8.41
6.93
4.59
1.71
-1.29
-4.03
-6.24
-7.76
-8.51
-8.53
-8.00
-7.14
-6.22
-5.44
-4.93
-4.76
-4.99
-5.69
-6.84
-8.34
-9.90
-11.24
-12.11
-12.46
-12.38
-12.02
-11.46
-10.67
-9.62
-8.32
-6.93
-5.59
-4.45
-3.57
-2.93
-2.48
-2.15
-1.88
-1.65
-1.40
-1.16
-0.98
-0.96
-1.15
-1.50
-1.84
-1.96
-1.67
-0.85
0.47
2.24
4.40
6.87
9.57
12.44
15.43
18.53
21.72
24.92
27.91
30.35
31.81
31.97
30.64
27.93
24.20
19.94
15.66
11.77
8.52
5.96
4.01
2.54
1.42
0.54
-0.17
-0.80
-1.42
-2.10
-2.78
-3.34
-3.62
-3.47
-2.89
-2.02
-1.15
-0.51
-0.28
-0.46
-0.92
-1.42
-1.69
-1.55
-0.97
-0.09
0.77
1.23
0.98
-0.11
-1.90
-4.06
-6.19
-7.97
-9.25
-10.04
-10.43
-10.54
-10.41
-10.04
-9.39
-8.48
-7.37
-6.22
-5.20
-4.43
-3.88
-3.40
-2.77
-1.77
-0.39
1.23
2.82
4.12
4.95
5.21
4.86
3.89
2.31
0.29
-1.87
-3.83
-5.29
-6.19
-6.65
-6.89
-7.07
-7.22
-7.23
-6.98
-6.47
-5.78
-5.05
-4.35
-3.71
-3.12
-2.60
-2.20
-1.94
-1.76
-1.55
-1.22
-0.72
-0.15
0.37
0.75
1.00
1.19
1.43
1.72
2.02
2.19
2.17
1.99
1.80
1.82
2.19
2.87
3.64
4.19
4.33
4.08
3.70
3.56
3.89
4.66
5.56
6.19
6.32
6.05
5.71
5.71
6.28
7.31
8.43
9.19
9.28
8.70
7.75
6.89
6.59
7.19
8.87
11.50
14.63
17.44
18.87
17.89
14.01
7.59
-0.17
-7.68
-13.67
-17.67
-20.23
-22.48
-25.52
-29.85
-35.21
-40.84
-45.82
-49.52
-51.70
-52.52
-52.47
-52.24
-52.71
-54.81
-59.34
-66.72
-76.89
-89.30
-103.04
-116.98
-129.94
-140.89
-149.11
-154.34
-156.79
-157.03
-155.75
-153.28
-149.39
-143.16
-133.30
-118.58
-98.39
-73.00
-43.55
-11.83
20.16
50.54
77.80
100.95
119.60
133.88
144.34
151.66
156.42
158.95
159.35
157.71
154.35
149.81
144.67
139.13
132.84
124.98
114.76
101.95
87.17
71.76
57.29
44.95
35.22
27.86
22.24
17.74
13.92
10.66
7.94
5.83
4.39
3.74
4.03
5.40
7.87
11.28
15.19
19.11
22.52
25.08
26.62
27.10
26.54
24.92
22.25
18.62
14.25
9.44
4.46
-0.51
-5.49
-10.62
-16.09
-21.96
-28.09
-34.14
-39.66
-44.22
-47.59
-49.83
-51.25
-52.35
-53.65
-55.50
-57.89
-60.40
-62.18
-62.10
-59.13
-52.79
-43.34
-31.90
-20.08
-9.37
-0.64
6.01
11.08
15.14
18.45
20.99
22.63
23.47
23.98
24.90
27.14
31.65
39.29
50.53
65.05
81.30
96.44
106.91
109.56
102.75
87.09
65.17
40.60
16.72
-4.35
-21.96
-36.38
-48.03
-56.81
-62.02
-62.68
-58.23
-48.89
-35.79
-20.59
-4.81
10.58
25.27
39.31
52.68
65.09
76.02
85.05
92.05
97.20
100.83
103.19
104.39
104.65
104.39
104.24
104.63
105.31
105.03
101.82
93.81
80.08
61.29
39.44
17.13
-3.41
-20.98
-35.33
-46.74
-55.53
-61.88
-66.03
-68.60
-70.68
-73.47
-77.78
-83.60
-90.05
-95.88
-99.94
-101.71
-101.39
-99.57
-96.78
-93.12
-88.06
-80.82
-70.78
-58.01
-43.35
-28.26
-14.27
-2.50
6.64
13.32
18.00
21.10
22.82
23.28
22.76
21.81
21.16
21.35
22.45
23.92
24.84
24.33
21.89
17.56
11.93
5.85
0.21
-4.26
-7.12
-8.19
-7.61
-5.73
-3.05
-0.04
2.78
5.05
6.36
6.35
4.71
1.25
-3.89
-10.34
-17.48
-24.58
-30.93
-36.05
-39.76
-42.23
-44.00
-45.74
-47.97
-50.74
-53.51
-55.20
-54.59
-50.77
-43.57
-33.65
-22.33
-11.13
-1.31
6.39
11.85
15.32
17.24
18.00
17.93
17.32
16.49
15.78
15.43
15.55
16.01
16.46
16.57
16.07
15.00
13.55
12.08
10.92
10.30
10.25
10.63
11.20
11.64
11.70
11.22
10.24
8.92
7.48
6.11
4.87
3.73
2.62
1.53
0.55
-0.19
-0.64
-0.86
-1.00
-1.23
-1.67
-2.33
-3.11
-3.83
-4.28
-4.27
-3.73
-2.76
-1.64
-0.73
-0.31
-0.48
-1.09
-1.86
-2.53
-2.97
-3.21
-3.36
-3.42
-3.33
-2.94
-2.16
-1.09
0.03
0.90
1.30
1.26
0.95
0.69
0.72
1.12
1.81
2.56
3.13
3.39
3.29
2.94
2.45
1.96
1.47
0.97
0.37
-0.34
-1.06
-1.67
-2.06
-2.22
-2.27
-2.33
-2.49
-2.73
-2.90
-2.88
-2.60
-2.06
-1.32
-0.42
0.59
1.60
2.43
2.84
2.67
1.91
0.74
-0.54
-1.61
-2.31
-2.65
-2.76
-2.83
-3.01
-3.36
-3.79
-4.14
-4.23
-3.95
-3.32
-2.53
-1.80
-1.28
-1.01
-0.88
-0.78
-0.64
-0.51
-0.47
-0.59
-0.83
-1.08
-1.22
-1.17
-0.93
-0.51
0.00
0.49
0.82
0.87
0.57
-0.01
-0.70
-1.28
-1.53
-1.35
-0.77
0.09
1.03
1.84
2.33
2.39
2.02
1.38
0.67
0.09
-0.27
-0.45
-0.61
-0.87
-1.28
-1.79
-2.35
-2.90
-3.47
-4.04
-4.57
-4.94
-5.00
-4.68
-4.02
-3.21
-2.48
-2.03
-1.96
-2.26
-2.82
-3.46
-3.97
-4.14
-3.83
-3.07
-2.11
-1.28
-0.90
-1.08
-1.69
-2.39
-2.84
-2.87
-2.51
-1.95
-1.40
-0.98
-0.66
-0.36
0.02
0.51
1.06
1.59
2.06
2.44
2.80
3.17
3.59
3.99
4.27
4.34
4.19
3.89
3.57
3.32
3.16
3.03
2.90
2.77
2.68
2.64
2.62
2.50
2.26
1.89
1.55
1.40
1.52
1.88
2.28
2.54
2.51
2.11
1.37
0.37
-0.79
-1.97
-3.00
-3.71
-4.00
-3.89
-3.44
-2.80
-2.15
-1.63
-1.33
-1.30
-1.50
-1.81
-2.03
-2.02
-1.68
-1.08
-0.35
0.35
0.90
1.22
1.28
1.06
0.57
-0.17
-1.02
-1.80
-2.33
-2.51
-2.36
-1.99
-1.57
-1.24
-1.06
-1.04
-1.16
-1.33
-1.47
-1.46
-1.21
-0.71
-0.00
0.76
1.44
1.88
2.04
1.93
1.64
1.28
0.84
0.31
-0.41
-1.37
-2.47
-3.49
-4.12
-4.17
-3.62
-2.67
-1.64
-0.78
-0.17
0.29
0.75
1.36
2.09
2.81
3.35
3.61
3.47
2.91
1.91
0.58
-0.94
-2.40
-3.60
-4.39
-4.75
-4.75
-4.48
-4.03
-3.45
-2.78
-2.09
-1.48
-1.11
-1.09
-1.46
-2.12
-2.86
-3.39
-3.48
-3.06
-2.28
-1.41
-0.77
-0.50
-0.56
-0.77
-0.88
-0.77
-0.46
-0.10
0.19
0.36
0.54
0.87
1.47
2.33
3.28
4.06
4.46
4.36
3.83
3.07
2.37
1.96
1.91
2.16
2.49
2.71
2.72
2.57
2.39
2.37
2.57
2.95
3.33
3.57
3.55
3.29
2.84
2.25
1.55
0.76
-0.06
-0.81
-1.34
-1.55
-1.46
-1.15
-0.83
-0.66
-0.75
-1.08
-1.56
-2.01
-2.27
-2.22
-1.83
-1.17
-0.39
0.36
0.98
1.41
1.66
1.76
1.71
1.54
1.31
1.11
1.04
1.16
1.43
1.69
1.71
1.30
0.45
-0.67
-1.71
-2.31
-2.25
-1.56
-0.49
0.60
1.38
1.73
1.62
1.17
0.51
-0.21
-0.85
-1.30
-1.46
-1.31
-0.94
-0.55
-0.33
-0.38
-0.64
-0.96
-1.13
-1.01
-0.63
-0.10
0.39
0.69
0.69
0.35
-0.28
-1.10
-1.91
-2.50
-2.64
-2.23
-1.28
0.04
1.46
2.69
3.48
3.66
3.20
2.27
1.23
0.50
0.38
0.89
1.68
2.24
2.13
1.29
0.05
-1.06
-1.61
-1.47
-0.82
-0.01
0.66
1.07
1.12
0.79
0.04
-1.05
-2.27
-3.29
-3.79
-3.68
-3.06
-2.25
-1.49
-0.91
-0.48
-0.06
0.41
0.93
1.36
1.56
1.44
1.03
0.47
0.00
-0.19
-0.05
0.36
0.88
1.29
1.50
1.51
1.39
1.20
1.01
0.79
0.54
0.30
0.09
-0.07
-0.21
-0.36
-0.51
-0.64
-0.70
-0.64
-0.49
-0.28
-0.04
0.18
0.38
0.56
0.71
0.84
0.95
1.01
0.99
0.89
0.72
0.52
0.42
0.49
0.74
1.08
1.31
1.25
0.88
0.28
-0.37
-0.89
-1.21
-1.30
-1.21
-0.96
-0.58
-0.12
0.32
0.59
0.62
0.46
0.31
0.38
0.78
1.43
2.10
2.52
2.56
2.28
1.85
1.51
1.37
1.41
1.49
1.44
1.19
0.77
0.32
-0.04
-0.20
-0.16
0.01
0.18
0.25
0.17
-0.06
-0.36
-0.67
-0.90
-1.00
-0.90
-0.64
-0.31
-0.06
-0.07
-0.38
-0.90
-1.42
-1.68
-1.51
-0.95
-0.19
0.45
0.72
0.55
0.07
-0.47
-0.81
-0.82
-0.58
-0.30
-0.15
-0.18
-0.25
-0.17
0.18
0.71
1.20
1.41
1.32
1.10
1.06
1.39
2.01
2.61
2.83
2.51
1.74
0.84
0.08
-0.41
-0.71
-0.99
-1.34
-1.72
-1.98
-2.02
-1.84
-1.54
-1.29
-1.16
-1.17
-1.25
-1.29
-1.23
-1.05
-0.82
-0.62
-0.50
-0.45
-0.40
-0.28
-0.05
0.25
0.49
0.58
0.45
0.17
-0.13
-0.32
-0.35
-0.28
-0.22
-0.26
-0.43
-0.69
-0.93
-1.09
-1.11
-0.98
-0.73
-0.38
0.04
0.48
0.89
1.18
1.29
1.22
1.00
0.71
0.40
0.12
-0.09
-0.20
-0.17
0.01
0.31
0.61
0.77
0.67
0.33
-0.08
-0.31
-0.18
0.28
0.84
1.17
1.03
0.46
-0.31
-0.95
-1.29
-1.41
-1.49
-1.71
-2.00
-2.13
-1.91
-1.30
-0.51
0.10
0.32
0.18
-0.12
-0.31
-0.26
-0.05
0.16
0.26
0.26
0.30
0.53
0.97
1.56
2.14
2.52
2.59
2.27
1.62
0.79
0.02
-0.47
-0.58
-0.36
-0.03
0.24
0.30
0.15
-0.15
-0.49
-0.78
-0.95
-0.94
-0.74
-0.35
0.14
0.63
0.97
1.13
1.09
0.92
0.68
0.37
0.04
-0.26
-0.42
-0.37
-0.12
0.24
0.56
0.69
0.55
0.11
-0.55
-1.28
-1.86
-2.10
-1.87
-1.23
-0.38
0.42
0.94
1.09
0.91
0.55
0.09
-0.41
-0.89
-1.28
-1.51
-1.50
-1.25
-0.84
-0.40
-0.04
0.19
0.25
0.18
-0.01
-0.29
-0.58
-0.74
-0.63
-0.17
0.58
1.41
2.07
2.34
2.15
1.62
0.97
0.44
0.14
0.08
0.12
0.16
0.20
0.27
0.43
0.63
0.72
0.59
0.23
-0.22
-0.54
-0.57
-0.34
-0.04
0.15
0.16
0.11
0.20
0.55
1.12
1.70
1.98
1.80
1.21
0.47
-0.12
-0.35
-0.23
0.08
0.32
0.30
0.01
-0.38
-0.68
-0.71
-0.47
-0.07
0.36
0.75
1.05
1.22
1.16
0.74
-0.08
-1.20
-2.35
-3.18
-3.49
-3.25
-2.65
-1.97
-1.43
-1.12
-1.04
-1.12
-1.32
-1.59
-1.82
-1.88
-1.66
-1.16
-0.48
0.20
0.71
1.02
1.18
1.27
1.31
1.26
1.08
0.83
0.64
0.69
1.05
1.67
2.34
2.86
3.05
2.88
2.40
1.72
0.98
0.34
-0.09
-0.23
-0.09
0.20
0.46
0.54
0.39
0.10
-0.15
-0.23
-0.11
0.11
0.29
0.34
0.26
0.16
0.11
0.13
0.12
0.01
-0.25
-0.58
-0.86
-0.99
-0.99
-0.96
-1.02
-1.19
-1.42
-1.58
-1.65
-1.64
-1.64
-1.72
-1.83
-1.90
-1.83
-1.63
-1.35
-1.10
-0.92
-0.83
-0.78
-0.79
-0.88
-1.13
-1.54
-2.09
-2.69
-3.24
-3.69
-3.99
-4.14
-4.17
-4.15
-4.20
-4.43
-4.88
-5.51
-6.22
-6.97
-7.78
-8.76
-10.00
-11.50
-13.11
-14.66
-16.02
-17.18
-18.24
-19.31
-20.48
-21.74
-23.07
-24.44
-25.80
-27.08
-28.14
-28.88
-29.28
-29.39
-29.40
-29.52
-29.99
-30.90
-32.18
-33.44
-34.04
-33.21
-30.33
-25.18
-18.04
-9.57
-0.43
8.90
18.25
27.62
36.88
45.67
53.50
59.94
64.86
68.50
71.32
73.84
76.55
79.87
84.18
89.70
96.25
103.05
108.77
111.88
111.28
106.67
98.68
88.56
77.60
66.72
56.35
46.56
37.37
28.97
21.66
15.68
11.07
7.65
5.02
2.83
0.87
-0.92
-2.44
-3.68
-4.70
-5.75
-7.12
-8.98
-11.30
-13.79
-16.06
-17.72
-18.57
-18.49
-17.50
-15.71
-13.32
-10.81
-8.83
-8.10
-9.08
-11.85
-16.02
-20.96
-26.10
-31.06
-35.71
-39.98
-43.77
-46.90
-49.17
-50.46
-50.76
-50.09
-48.40
-45.51
-41.17
-35.34
-28.30
-20.69
-13.38
-7.17
-2.50
0.67
2.76
4.29
5.67
7.11
8.69
10.54
12.86
15.95
19.93
24.62
29.50
33.91
37.25
39.24
39.85
39.13
36.98
33.08
26.94
18.29
7.18
-5.82
-19.87
-34.13
-48.02
-61.29
-73.86
-85.56
-95.93
-104.36
-110.28
-113.39
-113.74
-111.59
-107.17
-100.58
-91.87
-81.29
-69.44
-57.18
-45.40
-34.71
-25.28
-16.93
-9.36
-2.44
3.73
8.95
13.13
16.35
18.88
21.04
22.97
24.65
25.89
26.51
26.41
25.69
24.56
23.28
22.08
21.03
20.10
19.18
18.22
17.24
16.34
15.63
15.16
14.91
14.75
14.49
13.97
13.12
11.93
10.52
9.04
7.68
6.59
5.84
5.47
5.47
5.74
6.19
6.67
7.02
7.10
6.87
6.44
6.01
5.82
6.05
6.65
7.46
8.17
8.54
8.48
8.08
7.55
7.08
6.79
6.60
6.42
6.14
5.77
5.42
5.20
5.19
5.32
5.41
5.27
4.78
3.96
3.01
2.20
1.76
1.83
2.36
3.16
3.95
4.48
4.63
4.37
3.77
2.87
1.71
0.33
-1.14
-2.47
-3.42
-3.87
-3.88
-3.66
-3.49
-3.54
-3.81
-4.11
-4.30
-4.32
-4.26
-4.25
-4.37
-4.60
-4.85
-5.06
-5.23
-5.44
-5.71
-6.01
-6.24
-6.34
-6.31
-6.26
-6.33
-6.65
-7.27
-8.11
-9.05
-9.94
-10.66
-11.12
-11.34
-11.34
-11.22
-11.05
-10.89
-10.71
-10.44
-10.00
-9.28
-8.27
-7.01
-5.63
-4.34
-3.42
-3.09
-3.43
-4.29
-5.25
-5.83
-5.65
-4.63
-2.99
-1.12
0.66
2.29
3.90
5.64
7.55
9.45
11.02
12.03
12.41
12.34
12.10
11.94
11.99
12.17
12.34
12.35
12.16
11.82
11.46
11.23
11.18
11.30
11.48
11.63
11.76
11.90
12.16
12.54
12.99
13.35
13.52
13.51
13.43
13.42
13.50
13.60
13.57
13.30
12.86
12.40
12.12
12.10
12.29
12.58
12.89
13.32
14.08
15.34
17.16
19.35
21.63
23.74
25.65
27.54
29.73
32.52
36.13
40.59
45.92
52.16
59.32
67.12
74.88
81.52
86.16
88.52
89.08
88.72
87.97
86.44
82.95
76.16
65.54
51.77
36.34
20.68
5.30
-10.23
-26.64
-44.05
-61.46
-77.15
-89.47
-97.67
-101.94
-103.00
-101.51
-97.74
-91.81
-84.03
-75.27
-66.79
-59.77
-54.85
-51.84
-49.83
-47.55
-43.91
-38.27
-30.56
-21.16
-10.74
0.06
10.72
20.91
30.46
39.16
46.71
52.71
56.76
58.59
58.15
55.60
51.18
45.12
37.45
28.06
16.76
3.62
-10.62
-24.42
-35.66
-42.30
-43.14
-38.36
-29.57
-19.26
-10.03
-3.81
-1.49
-2.92
-7.13
-12.69
-18.07
-21.80
-22.76
-20.33
-14.55
-6.25
3.09
11.59
17.51
19.90
19.03
16.38
13.97
13.36
14.85
17.36
19.09
18.58
15.49
10.48
4.58
-1.84
-9.38
-19.25
-32.47
-48.87
-66.87
-83.87
-97.21
-105.13
-107.36
-104.88
-99.44
-92.72
-85.83
-79.15
-72.61
-66.18
-60.22
-55.57
-53.14
-53.47
-56.22
-60.17
-63.63
-64.96
-63.30
-58.74
-52.33
-45.49
-39.42
-34.65
-30.92
-27.50
-23.68
-19.09
-13.86
-8.38
-3.03
2.06
6.96
11.87
16.86
21.81
26.39
30.22
32.94
34.43
34.79
34.39
33.72
33.18
32.94
32.90
32.79
32.44
31.88
31.34
31.12
31.37
31.97
32.58
32.91
32.81
32.43
32.13
32.22
32.89
34.07
35.45
36.66
37.44
37.76
37.84
38.08
38.80
40.14
41.92
43.74
45.27
46.38
47.24
48.33
50.21
53.35
57.99
64.05
71.06
78.33
84.99
90.23
93.36
93.84
91.19
85.11
75.66
63.46
49.74
35.95
23.19
11.85
1.50
-8.53
-18.47
-27.87
-35.90
-42.07
-46.79
-51.24
-56.58
-63.00
-69.33
-73.57
-73.97
-69.95
-62.36
-52.85
-42.94
-33.46
-24.56
-16.27
-9.20
-4.63
-4.07
-8.43
-17.32
-28.86
-40.19
-48.45
-51.76
-49.78
-43.62
-35.28
-26.75
-19.42
-13.79
-9.71
-6.82
-4.79
-3.54
-3.01
-3.04
-3.30
-3.40
-3.10
-2.57
-2.31
-3.27
-6.55
-13.23
-23.90
-38.28
-54.92
-71.39
-84.83
-92.89
-94.44
-89.92
-80.99
-69.69
-57.75
-46.15
-35.24
-25.10
-15.83
-7.66
-0.81
4.69
8.97
12.17
14.31
15.17
14.51
12.21
8.49
3.98
-0.40
-3.68
-5.17
-4.67
-2.56
0.31
2.94
4.54
4.76
3.75
2.06
0.38
-0.68
-0.71
0.47
2.80
6.01
9.71
13.46
16.85
19.67
21.86
23.47
24.59
25.29
25.60
25.61
25.40
25.11
24.77
24.36
23.81
23.10
22.31
21.56
20.90
20.29
19.57
18.61
17.40
16.09
14.94
14.16
13.77
13.69
13.68
13.60
13.36
12.98
12.42
11.63
10.56
9.24
7.85
6.66
5.94
5.73
5.91
6.21
6.34
6.20
5.86
5.46
5.17
5.04
5.04
5.06
5.06
5.00
4.94
4.92
4.97
5.07
5.20
5.31
5.37
5.36
5.27
5.08
4.80
4.45
4.08
3.80
3.69
3.81
4.14
4.56
4.94
5.17
5.26
5.29
5.38
5.60
5.95
6.35
6.66
6.81
6.76
6.52
6.12
5.60
4.97
4.29
3.61
3.03
2.68
2.59
2.75
3.05
3.33
3.40
3.18
2.64
1.84
0.94
0.09
-0.54
-0.82
-0.68
-0.19
0.49
1.08
1.34
1.15
0.57
-0.20
-0.97
-1.62
-2.18
-2.68
-3.16
-3.55
-3.74
-3.62
-3.19
-2.51
-1.72
-0.94
-0.30
0.06
0.05
-0.35
-1.03
-1.77
-2.36
-2.72
-2.92
-3.15
-3.51
-3.94
-4.19
-4.00
-3.26
-2.11
-0.87
0.14
0.71
0.84
0.71
0.52
0.42
0.47
0.63
0.83
1.01
1.16
1.30
1.50
1.76
2.04
2.26
2.29
2.07
1.63
1.12
0.75
0.69
1.05
1.75
2.60
3.31
3.61
3.38
2.70
1.86
1.22
1.00
1.20
1.58
1.87
1.91
1.75
1.58
1.56
1.68
1.76
1.56
1.04
0.33
-0.20
-0.30
0.12
0.81
1.40
1.61
1.37
0.84
0.30
-0.04
-0.10
0.02
0.18
0.28
0.33
0.35
0.41
0.54
0.68
0.77
0.75
0.63
0.44
0.27
0.14
0.09
0.11
0.19
0.31
0.46
0.58
0.57
0.39
0.06
-0.29
-0.47
-0.33
0.16
0.83
1.41
1.64
1.43
0.84
0.06
-0.72
-1.38
-1.88
-2.21
-2.38
-2.33
-2.02
-1.44
-0.67
0.14
0.79
1.09
0.98
0.50
-0.13
-0.65
-0.90
-0.79
-0.41
0.10
0.56
0.89
1.03
1.03
0.91
0.75
0.61
0.52
0.52
0.60
0.73
0.88
1.00
1.10
1.17
1.21
1.24
1.28
1.34
1.43
1.53
1.58
1.58
1.55
1.60
1.78
2.09
2.42
2.59
2.49
2.07
1.48
0.88
0.38
0.06
-0.08
-0.06
0.12
0.42
0.75
1.01
1.08
0.97
0.76
0.58
0.50
0.46
0.31
-0.09
-0.74
-1.53
-2.20
-2.54
-2.46
-2.08
-1.59
-1.23
-1.16
-1.38
-1.75
-2.07
-2.16
-1.98
-1.63
-1.29
-1.10
-1.08
-1.09
-0.95
-0.59
-0.16
0.10
-0.01
-0.48
-1.04
-1.33
-1.13
-0.49
0.30
0.88
1.10
1.00
0.79
0.69
0.77
0.96
1.13
1.18
1.10
0.92
0.68
0.45
0.29
0.23
0.32
0.53
0.79
0.99
1.11
1.17
1.20
1.24
1.27
1.29
1.33
1.46
1.72
2.04
2.21
2.05
1.44
0.49
-0.52
-1.30
-1.65
-1.60
-1.37
-1.21
-1.26
-1.55
-1.94
-2.27
-2.43
-2.41
-2.24
-2.03
-1.82
-1.59
-1.31
-0.98
-0.63
-0.36
-0.25
-0.33
-0.52
-0.69
-0.71
-0.52
-0.23
0.04
0.20
0.25
0.28
0.41
0.68
1.07
1.47
1.79
1.93
1.85
1.61
1.27
0.93
0.64
0.42
0.24
0.05
-0.16
-0.33
-0.38
-0.24
0.07
0.46
0.80
1.00
1.05
1.08
1.15
1.26
1.33
1.22
0.85
0.28
-0.32
-0.78
-0.93
-0.78
-0.37
0.11
0.50
0.69
0.61
0.33
-0.11
-0.58
-1.06
-1.49
-1.83
-2.06
-2.11
-1.93
-1.55
-1.04
-0.56
-0.24
-0.12
-0.15
-0.25
-0.33
-0.41
-0.52
-0.67
-0.79
-0.79
-0.53
0.01
0.71
1.36
1.79
1.90
1.78
1.65
1.70
1.98
2.29
2.37
1.97
1.11
0.05
-0.75
-0.90
-0.33
0.69
1.64
2.04
1.72
0.90
0.02
-0.50
-0.55
-0.30
-0.07
-0.08
-0.29
-0.49
-0.50
-0.25
0.10
0.34
0.36
0.23
0.13
0.19
0.38
0.55
0.53
0.24
-0.22
-0.70
-1.06
-1.28
-1.40
-1.44
-1.36
-1.06
-0.43
0.49
1.59
2.62
3.30
3.46
3.12
2.41
1.57
0.79
0.16
-0.33
-0.71
-1.00
-1.17
-1.19
-1.11
-1.03
-1.05
-1.20
-1.38
-1.46
-1.39
-1.27
-1.29
-1.57
-2.05
-2.46
-2.50
-2.01
-1.09
-0.08
0.68
0.99
0.88
0.48
-0.04
-0.60
-1.17
-1.69
-2.09
-2.24
-2.06
-1.57
-0.84
-0.03
0.69
1.18
1.38
1.33
1.13
0.89
0.67
0.51
0.39
0.32
0.35
0.50
0.77
1.00
0.97
0.56
-0.21
-1.07
-1.67
-1.73
-1.25
-0.43
0.38
0.93
1.10
0.97
0.70
0.43
0.23
0.14
0.17
0.37
0.71
1.16
1.56
1.77
1.65
1.15
0.34
-0.61
-1.50
-2.14
-2.38
-2.25
-1.83
-1.32
-0.89
-0.63
-0.50
-0.37
-0.08
0.43
1.05
1.59
1.87
1.79
1.46
1.06
0.76
0.60
0.50
0.31
-0.04
-0.51
-0.95
-1.17
-1.08
-0.75
-0.32
0.07
0.33
0.50
0.65
0.80
0.88
0.81
0.58
0.28
0.06
0.02
0.10
0.14
-0.02
-0.47
-1.07
-1.60
-1.86
-1.82
-1.58
-1.33
-1.15
-0.96
-0.64
-0.12
0.52
1.07
1.29
1.10
0.56
-0.10
-0.68
-1.05
-1.24
-1.33
-1.41
-1.50
-1.57
-1.60
-1.57
-1.53
-1.53
-1.59
-1.74
-1.93
-2.13
-2.21
-2.10
-1.74
-1.16
-0.52
0.04
0.32
0.26
-0.10
-0.62
-1.14
-1.49
-1.56
-1.33
-0.78
0.05
1.14
2.39
3.64
4.67
5.25
5.34
5.05
4.74
4.75
5.30
6.34
7.58
8.67
9.46
10.05
10.70
11.68
13.06
14.63
16.13
17.40
18.52
19.81
21.68
24.51
28.52
33.74
40.06
47.11
54.22
60.35
64.26
64.74
60.97
52.68
40.18
24.20
5.68
-14.34
-34.65
-53.71
-69.66
-80.59
-85.04
-82.52
-73.87
-61.08
-46.80
-33.64
-23.47
-17.12
-14.40
-14.32
-15.56
-16.78
-16.90
-15.25
-11.73
-6.85
-1.56
3.00
5.92
6.86
6.20
4.78
3.46
2.72
2.41
1.98
0.82
-1.42
-4.61
-8.36
-12.15
-15.56
-18.23
-19.93
-20.44
-19.66
-17.73
-15.02
-12.06
-9.25
-6.72
-4.33
-1.77
1.15
4.35
7.44
9.86
11.08
10.72
8.70
5.20
0.72
-4.07
-8.39
-11.53
-13.04
-12.77
-10.94
-8.01
-4.57
-1.22
1.61
3.69
5.09
6.17
7.45
9.39
12.18
15.66
19.45
23.07
26.20
28.65
30.34
31.11
30.72
28.94
25.74
21.34
16.17
10.74
5.58
1.19
-1.92
-3.29
-2.66
-0.18
3.55
7.60
10.98
12.96
13.19
11.69
8.70
4.56
-0.30
-5.38
-10.11
-14.01
-16.77
-18.42
-19.32
-19.99
-21.02
-22.85
-25.56
-28.82
-31.88
-33.80
-33.77
-31.29
-26.42
-19.56
-11.32
-2.29
7.04
16.20
24.59
31.44
35.91
37.37
35.63
30.99
24.20
16.29
8.39
1.59
-3.31
-5.91
-6.46
-5.79
-5.05
-5.30
-7.16
-10.70
-15.54
-21.19
-27.21
-33.30
-39.09
-44.07
-47.55
-48.91
-47.83
-44.45
-39.34
-33.24
-26.78
-20.29
-13.85
-7.30
-0.55
6.32
13.04
19.33
24.97
30.07
34.97
40.06
45.62
51.58
57.57
63.10
67.85
71.93
75.84
80.20
85.42
91.36
97.36
102.41
105.48
105.89
103.39
98.09
90.26
80.14
67.90
53.67
37.63
19.89
0.35
-21.48
-46.19
-73.96
-103.83
-133.33
-158.83
-176.59
-184.01
-180.68
-168.47
-150.73
-131.06
-112.14
-95.34
-80.91
-68.58
-58.09
-49.32
-42.21
-36.51
-31.71
-27.30
-22.84
-18.22
-13.58
-9.22
-5.41
-2.29
0.19
2.22
3.97
5.64
7.30
8.98
10.58
11.97
13.01
13.64
13.93
14.08
14.38
15.01
15.99
17.10
18.01
18.41
18.20
17.55
16.81
16.30
16.17
16.31
16.49
16.46
16.15
15.61
15.04
14.57
14.21
13.85
13.28
12.40
11.19
9.82
8.51
7.48
6.85
6.57
6.52
6.52
6.44
6.21
5.86
5.43
4.99
4.56
4.17
3.83
3.59
3.48
3.56
3.80
4.11
4.38
4.48
4.37
4.12
3.88
3.80
3.97
4.38
4.89
5.27
5.38
5.16
4.71
4.23
3.96
4.01
4.34
4.77
5.05
5.04
4.71
4.26
3.92
3.86
4.08
4.41
4.60
4.51
4.19
3.86
3.76
4.01
4.50
4.96
5.12
4.84
4.27
3.68
3.39
3.52
3.94
4.42
4.77
4.94
5.07
5.32
5.70
6.07
6.16
5.77
4.88
3.67
2.42
1.34
0.46
-0.29
-1.01
-1.70
-2.25
-2.45
-2.17
-1.44
-0.47
0.40
0.81
0.56
-0.29
-1.46
-2.48
-2.96
-2.75
-1.99
-1.03
-0.26
0.11
0.13
0.09
0.37
1.23
2.74
4.76
7.06
9.35
11.31
12.67
13.19
12.79
11.56
9.78
7.83
6.11
4.93
4.45
4.70
5.57
6.88
8.47
10.20
12.01
13.85
15.69
17.42
18.91
20.09
21.09
22.14
23.50
25.10
26.43
26.56
24.44
19.41
11.47
1.38
-9.67
-20.52
-30.36
-38.84
-46.03
-52.15
-57.51
-62.41
-67.16
-71.94
-76.78
-81.38
-85.35
-88.28
-90.00
-90.63
-90.44
-89.67
-88.32
-86.20
-83.03
-78.71
-73.34
-67.17
-60.53
-53.69
-46.80
-39.97
-33.29
-26.92
-21.09
-16.08
-12.17
-9.61
-8.52
-8.86
-10.46
-13.00
-16.04
-19.02
-21.31
-22.23
-21.25
-18.14
-12.97
-6.12
1.93
10.80
20.21
29.94
39.70
49.08
57.58
64.80
70.54
74.82
77.84
79.82
80.90
81.12
80.45
78.84
76.28
72.85
68.75
64.32
59.95
55.98
52.64
49.96
47.82
46.01
44.32
42.59
40.76
38.79
36.70
34.51
32.29
30.04
27.79
25.52
23.22
20.96
18.85
17.05
15.75
15.06
15.00
15.42
16.02
16.42
16.22
15.20
13.39
11.10
8.74
6.66
4.95
3.43
1.88
0.19
-1.50
-2.83
-3.46
-3.29
-2.52
-1.51
-0.60
0.09
0.66
1.33
2.21
3.27
4.29
5.01
5.26
4.99
4.36
3.58
2.91
2.52
2.57
3.10
4.13
5.58
7.28
9.00
10.42
11.23
11.18
10.11
8.05
5.17
1.73
-1.92
-5.43
-8.45
-10.71
-12.10
-12.66
-12.63
-12.29
-11.93
-11.74
-11.80
-12.12
-12.67
-13.43
-14.36
-15.40
-16.49
-17.59
-18.71
-19.83
-20.91
-21.84
-22.48
-22.69
-22.41
-21.59
-20.21
-18.28
-15.91
-13.36
-11.07
-9.46
-8.76
-8.84
-9.25
-9.48
-9.21
-8.43
-7.35
-6.19
-5.01
-3.74
-2.35
-0.94
0.21
0.84
0.89
0.54
0.05
-0.35
-0.68
-1.08
-1.65
-2.37
-3.04
-3.54
-3.85
-4.12
-4.55
-5.29
-6.36
-7.73
-9.38
-11.26
-13.34
-15.46
-17.45
-19.14
-20.48
-21.59
-22.63
-23.74
-24.86
-25.80
-26.38
-26.55
-26.43
-26.21
-25.97
-25.63
-25.03
-24.01
-22.63
-21.06
-19.55
-18.21
-16.91
-15.35
-13.11
-9.89
-5.65
-0.67
4.48
9.16
12.83
15.26
16.59
17.18
17.43
17.59
17.66
17.47
16.87
15.86
14.57
13.12
11.51
9.58
7.11
4.00
0.33
-3.64
-7.57
-11.17
-14.25
-16.71
-18.42
-19.28
-19.12
-17.78
-15.14
-11.14
-5.78
0.90
8.82
17.89
27.89
38.42
48.85
58.37
66.17
71.62
74.46
74.78
73.01
69.64
65.22
60.20
54.97
49.84
44.93
40.17
35.35
30.25
24.77
19.09
13.55
8.50
4.16
0.55
-2.45
-4.95
-7.01
-8.68
-9.99
-11.07
-12.02
-12.89
-13.62
-14.08
-14.22
-14.12
-14.02
-14.10
-14.44
-14.96
-15.41
-15.57
-15.30
-14.56
-13.39
-11.86
-10.13
-8.43
-7.03
-6.23
-6.23
-7.04
-8.43
-10.04
-11.41
-12.21
-12.26
-11.69
-10.87
-10.33
-10.56
-11.83
-14.07
-16.92
-19.87
-22.49
-24.53
-25.85
-26.39
-26.02
-24.66
-22.33
-19.22
-15.70
-12.14
-8.83
-5.85
-3.19
-0.85
1.13
2.64
3.63
4.13
4.34
4.53
4.94
5.77
7.19
9.32
12.23
15.87
20.04
24.37
28.50
32.07
34.86
36.80
37.91
38.29
38.05
37.35
36.43
35.59
35.17
35.40
36.35
37.87
39.54
40.93
41.64
41.45
40.37
38.50
35.96
32.76
28.79
23.97
18.29
11.99
5.40
-1.04
-6.96
-12.17
-16.57
-20.17
-23.03
-25.20
-26.75
-27.79
-28.47
-29.01
-29.62
-30.41
-31.34
-32.15
-32.44
-31.85
-30.22
-27.72
-24.83
-22.18
-20.20
-18.96
-18.13
-17.06
-15.07
-11.68
-6.77
-0.65
5.98
12.22
17.09
19.83
20.07
17.92
13.95
8.98
3.86
-0.76
-4.51
-7.24
-8.97
-9.74
-9.64
-8.70
-7.00
-4.76
-2.46
-0.93
-1.23
-4.34
-10.73
-20.01
-30.89
-41.53
-50.13
-55.56
-57.63
-57.05
-55.06
-52.95
-51.77
-52.09
-54.05
-57.34
-61.23
-64.67
-66.50
-65.75
-61.97
-55.30
-46.39
-36.21
-25.72
-15.71
-6.68
1.17
7.84
13.52
18.56
23.29
27.94
32.50
36.77
40.38
43.12
44.96
46.14
47.06
48.05
49.29
50.73
52.13
53.14
53.44
52.80
51.25
49.05
46.74
44.97
44.25
44.85
46.57
48.94
51.46
53.84
56.18
58.80
61.89
65.15
67.79
68.72
67.16
63.09
57.30
51.08
45.58
41.33
38.15
35.44
32.70
29.85
27.26
25.47
24.81
25.24
26.39
27.78
28.98
29.76
30.05
29.89
29.31
28.26
26.57
24.03
20.49
16.09
11.22
6.38
2.03
-1.68
-4.81
-7.53
-10.04
-12.45
-14.97
-17.93
-21.73
-26.45
-31.76
-36.80
-40.66
-42.75
-43.18
-42.66
-42.04
-41.84
-42.03
-42.20
-41.89
-40.98
-39.70
-38.48
-37.64
-37.24
-37.08
-36.80
-36.16
-35.10
-33.81
-32.62
-31.84
-31.65
-32.04
-32.78
-33.55
-34.10
-34.27
-34.00
-33.35
-32.38
-31.15
-29.70
-28.10
-26.42
-24.76
-23.25
-22.00
-21.10
-20.58
-20.36
-20.26
-20.11
-19.77
-19.19
-18.41
-17.48
-16.40
-15.16
-13.74
-12.18
-10.62
-9.13
-7.74
-6.30
-4.68
-2.80
-0.81
1.06
2.58
3.74
4.73
5.87
7.36
9.11
10.72
11.66
11.48
10.08
7.63
4.57
1.38
-1.50
-3.74
-5.17
-5.73
-5.55
-4.90
-4.16
-3.68
-3.63
-3.97
-4.48
-4.86
-4.85
-4.44
-3.75
-3.07
-2.60
-2.43
-2.50
-2.64
-2.72
-2.68
-2.57
-2.41
-2.18
-1.80
-1.23
-0.53
0.11
0.47
0.46
0.14
-0.24
-0.43
-0.28
0.20
0.89
1.69
2.51
3.31
4.02
4.48
4.52
3.99
2.92
1.52
0.13
-0.90
-1.31
-1.10
-0.45
0.34
0.94
1.19
1.12
0.92
0.75
0.70
0.66
0.45
-0.01
-0.61
-1.03
-0.96
-0.28
0.85
2.06
2.99
3.45
3.47
3.24
2.97
2.84
2.92
3.21
3.61
3.96
4.01
3.58
2.61
1.26
-0.19
-1.39
-2.11
-2.30
-2.06
-1.57
-1.02
-0.57
-0.32
-0.31
-0.49
-0.75
-0.96
-1.05
-1.09
-1.25
-1.62
-2.16
-2.69
-3.01
-3.01
-2.77
-2.42
-2.13
-1.90
-1.64
-1.16
-0.38
0.62
1.59
2.16
2.07
1.24
-0.16
-1.76
-3.13
-3.97
-4.23
-4.10
-3.87
-3.78
-3.84
-3.90
-3.77
-3.35
-2.70
-1.99
-1.38
-0.96
-0.64
-0.29
0.25
0.95
1.71
2.36
2.75
2.90
2.92
2.98
3.17
3.39
3.40
3.00
2.14
1.00
-0.06
-0.67
-0.78
-0.56
-0.39
-0.54
-1.00
-1.45
-1.46
-0.81
0.40
1.76
2.84
3.44
3.68
3.90
4.34
4.99
5.61
5.91
5.75
5.32
4.94
4.87
5.13
5.47
5.54
5.08
4.11
2.86
1.64
0.65
-0.03
-0.50
-0.91
-1.37
-1.90
-2.45
-2.93
-3.27
-3.43
-3.36
-3.05
-2.46
-1.54
-0.33
1.00
2.21
3.01
3.21
2.77
1.85
0.63
-0.67
-1.93
-3.09
-4.09
-4.91
-5.51
-5.88
-6.03
-5.98
-5.77
-5.43
-5.04
-4.67
-4.44
-4.43
-4.61
-4.88
-5.06
-4.99
-4.58
-3.85
-2.82
-1.57
-0.21
1.05
1.95
2.26
1.86
0.91
-0.28
-1.35
-2.05
-2.36
-2.41
-2.38
-2.37
-2.34
-2.14
-1.66
-0.87
0.09
1.05
1.80
2.20
2.27
2.07
1.80
1.58
1.50
1.53
1.60
1.72
1.95
2.43
3.25
4.35
5.53
6.53
7.16
7.48
7.72
8.17
8.94
9.87
10.57
10.60
9.69
7.86
5.37
2.64
0.03
-2.26
-4.16
-5.66
-6.72
-7.18
-6.80
-5.43
-3.09
-0.07
3.20
6.21
8.60
10.20
11.00
11.01
10.21
8.51
5.90
2.60
-0.88
-3.84
-5.64
-5.90
-4.71
-2.52
0.04
2.31
3.85
4.41
3.99
2.78
1.09
-0.70
-2.23
-3.19
-3.39
-2.75
-1.40
0.46
2.51
4.40
5.87
6.74
6.96
6.57
5.78
4.88
4.29
4.48
5.79
8.28
11.64
15.23
18.38
20.69
22.29
23.79
25.97
29.46
34.22
39.63
44.71
48.65
51.27
53.04
54.73
56.82
59.05
60.36
59.29
54.66
45.91
33.01
16.21
-4.30
-28.01
-53.51
-77.98
-97.47
-108.12
-107.71
-96.81
-78.62
-57.60
-37.55
-20.41
-6.10
6.28
17.15
25.63
29.96
28.47
20.58
7.09
-10.22
-29.18
-47.61
-63.43
-74.72
-79.89
-78.23
-70.22
-57.63
-42.79
-27.79
-13.90
-1.46
9.56
19.06
26.58
31.56
33.71
33.31
31.12
28.06
24.82
21.72
18.58
14.89
9.96
3.12
-6.08
-17.58
-30.71
-44.23
-56.53
-66.04
-71.51
-72.38
-68.76
-61.46
-51.68
-40.79
-29.97
-19.98
-11.15
-3.53
2.91
8.15
12.08
14.76
16.46
17.67
18.86
20.25
21.67
22.73
23.04
22.52
21.46
20.32
19.58
19.43
19.75
20.20
20.45
20.31
19.80
19.09
18.41
17.97
17.86
18.03
18.27
18.32
17.98
17.23
16.30
15.60
15.63
16.78
19.15
22.53
26.42
30.09
32.89
34.35
34.44
33.56
32.55
32.44
34.23
38.60
45.52
54.13
62.70
69.12
71.68
69.77
64.22
56.89
49.79
43.99
39.20
34.02
26.66
15.75
0.82
-17.68
-38.42
-59.28
-77.52
-90.12
-94.64
-90.13
-77.79
-60.58
-42.10
-25.15
-10.82
1.32
12.10
21.64
28.80
31.72
28.81
19.67
5.33
-12.17
-30.36
-46.89
-59.73
-67.34
-68.74
-63.69
-52.78
-37.41
-19.54
-1.39
14.80
26.83
32.86
31.48
22.21
5.77
-15.59
-38.37
-58.34
-71.64
-75.73
-70.21
-56.90
-39.22
-20.86
-4.63
8.20
17.62
24.13
27.84
28.30
24.67
16.40
3.71
-12.29
-29.83
-46.71
-60.65
-69.61
-72.25
-68.31
-58.65
-45.02
-29.48
-13.74
1.08
14.41
25.84
35.00
41.62
45.90
48.66
51.07
54.06
57.75
61.36
63.72
63.98
62.15
59.02
55.53
52.10
48.31
43.14
35.49
24.51
9.69
-9.26
-32.19
-58.06
-84.40
-107.36
-122.68
-127.26
-120.52
-104.75
-84.19
-63.33
-45.29
-31.12
-20.26
-11.47
-3.81
3.01
8.82
13.38
16.72
19.09
20.81
22.07
22.90
23.15
22.62
21.06
18.34
14.36
9.21
3.12
-3.50
-10.06
-15.92
-20.46
-23.22
-23.99
-22.82
-20.00
-16.00
-11.36
-6.64
-2.33
1.19
3.73
5.30
6.12
6.52
6.93
7.63
8.81
10.37
12.09
13.64
14.68
15.04
14.72
13.95
13.07
12.43
12.22
12.46
12.94
13.41
13.67
13.59
13.20
12.61
11.95
11.37
10.92
10.60
10.33
10.04
9.67
9.20
8.69
8.14
7.60
7.07
6.59
6.22
6.04
6.08
6.30
6.58
6.78
6.83
6.77
6.68
6.62
6.54
6.35
5.94
5.27
4.44
3.66
3.14
2.99
3.20
3.65
4.16
4.61
4.93
5.18
5.39
5.62
5.85
5.98
5.90
5.51
4.75
3.69
2.41
1.06
-0.28
-1.53
-2.69
-3.73
-4.53
-4.91
-4.69
-3.80
-2.39
-0.84
0.36
0.76
0.20
-1.16
-2.91
-4.61
-5.92
-6.74
-7.14
-7.26
-7.11
-6.64
-5.77
-4.54
-3.21
-2.16
-1.71
-1.96
-2.70
-3.51
-3.97
-3.87
-3.24
-2.36
-1.56
-1.04
-0.85
-0.84
-0.80
-0.56
-0.02
0.82
1.82
2.75
3.42
3.70
3.65
3.45
3.31
3.38
3.63
3.94
4.18
4.32
4.42
4.51
4.58
4.53
4.31
3.98
3.70
3.67
3.98
4.52
5.04
5.31
5.20
4.73
4.08
3.39
2.80
2.40
2.24
2.40
2.89
3.61
4.42
5.09
5.43
5.36
4.90
4.14
3.21
2.26
1.40
0.79
0.49
0.56
0.93
1.49
2.08
2.60
3.02
3.43
3.98
4.75
5.71
6.62
7.19
7.19
6.60
5.65
4.80
4.50
5.05
6.63
9.25
12.82
17.16
21.86
26.24
29.49
30.86
29.95
26.91
22.20
16.40
9.89
2.82
-4.69
-12.20
-18.91
-23.82
-26.15
-25.81
-23.41
-20.08
-16.97
-14.87
-14.06
-14.40
-15.53
-17.06
-18.64
-19.98
-20.85
-21.09
-20.67
-19.62
-18.11
-16.31
-14.41
-12.55
-10.85
-9.32
-7.89
-6.46
-4.92
-3.26
-1.58
-0.09
1.07
1.86
2.35
2.64
2.88
3.19
3.71
4.51
5.63
6.92
8.16
9.03
9.34
9.06
8.33
7.43
6.50
5.57
4.57
3.41
2.17
1.03
0.21
-0.15
0.02
0.64
1.65
2.95
4.37
5.66
6.52
6.66
5.95
4.45
2.44
0.33
-1.46
-2.55
-2.69
-1.83
-0.09
2.20
4.61
6.69
8.12
8.69
8.39
7.37
5.90
4.44
3.59
3.91
5.76
9.09
13.39
17.84
21.54
23.76
24.16
22.84
20.34
17.54
15.47
15.03
16.62
19.92
23.95
27.40
29.26
29.33
28.34
27.65
28.61
31.95
37.52
44.41
51.53
58.01
63.46
67.87
71.31
73.87
75.69
77.09
78.54
80.24
81.76
81.74
78.35
70.15
57.06
40.77
23.99
8.94
-4.12
-17.46
-34.80
-59.16
-90.84
-126.62
-160.78
-187.40
-202.50
-205.18
-197.14
-181.18
-159.84
-134.76
-107.06
-78.14
-50.14
-25.55
-6.39
6.72
14.85
20.28
25.38
31.57
38.73
45.21
48.54
46.43
37.48
21.57
-0.09
-25.12
-50.29
-71.93
-86.55
-91.67
-86.54
-72.36
-51.94
-28.70
-5.62
15.47
33.90
49.69
62.87
73.13
79.92
82.82
81.94
78.02
72.14
65.23
57.66
48.89
37.60
22.00
0.77
-26.04
-56.27
-85.79
-109.42
-122.57
-122.82
-110.71
-89.44
-63.65
-37.82
-15.03
3.56
18.26
29.96
39.21
45.74
48.65
47.01
40.52
29.71
15.65
-0.82
-19.54
-40.77
-64.30
-88.39
-109.52
-123.25
-126.07
-117.10
-98.72
-75.65
-52.97
-34.24
-20.53
-10.88
-3.46
3.19
9.57
15.45
20.38
24.26
27.35
30.17
33.03
35.90
38.42
40.09
40.60
40.00
38.71
37.31
36.32
35.90
35.83
35.54
34.40
32.05
28.56
24.47
20.47
17.19
14.85
13.41
12.64
12.40
12.61
13.20
13.94
14.43
14.21
13.12
11.43
9.76
8.78
8.82
9.64
10.59
10.93
10.23
8.57
6.45
4.49
3.16
2.53
2.40
2.44
2.40
2.27
2.20
2.36
2.79
3.26
3.52
3.32
2.73
2.09
1.82
2.12
2.85
3.53
3.63
2.89
1.46
-0.15
-1.44
-2.11
-2.19
-1.96
-1.68
-1.49
-1.33
-1.05
-0.50
0.28
1.13
1.80
2.10
2.00
1.68
1.34
1.20
1.31
1.61
2.01
2.48
3.09
3.88
4.82
5.72
6.28
6.28
5.67
4.65
3.53
2.56
1.88
1.53
1.53
1.90
2.64
3.68
4.82
5.76
6.25
6.12
5.40
4.17
2.66
1.07
-0.33
-1.34
-1.81
-1.76
-1.33
-0.83
-0.52
-0.59
-1.05
-1.72
-2.35
-2.71
-2.71
-2.36
-1.80
-1.17
-0.58
-0.09
0.32
0.64
0.82
0.77
0.43
-0.18
-0.91
-1.58
-2.05
-2.33
-2.52
-2.75
-3.01
-3.15
-2.97
-2.42
-1.63
-0.91
-0.56
-0.65
-1.02
-1.37
-1.45
-1.21
-0.79
-0.35
0.06
0.55
1.25
2.15
3.06
3.63
3.58
2.89
1.79
0.76
0.24
0.44
1.26
2.36
3.34
3.90
3.96
3.63
3.11
2.55
2.00
1.46
0.91
0.42
0.12
0.10
0.38
0.83
1.32
1.72
1.99
2.14
2.18
2.07
1.77
1.33
0.89
0.62
0.65
0.93
1.26
1.41
1.25
0.84
0.44
0.29
0.51
1.04
1.68
2.19
2.45
2.39
2.10
1.67
1.22
0.81
0.48
0.18
-0.14
-0.50
-0.87
-1.11
-1.07
-0.64
0.15
1.09
1.92
2.39
2.39
2.01
1.44
0.88
0.47
0.24
0.10
-0.09
-0.39
-0.80
-1.21
-1.44
-1.35
-0.94
-0.30
0.38
0.90
1.17
1.25
1.25
1.25
1.27
1.24
1.07
0.69
0.18
-0.35
-0.76
-0.94
-0.93
-0.74
-0.48
-0.18
0.12
0.41
0.64
0.74
0.66
0.37
-0.04
-0.42
-0.64
-0.65
-0.50
-0.29
-0.13
0.01
0.16
0.35
0.50
0.47
0.15
-0.42
-1.06
-1.52
-1.65
-1.52
-1.34
-1.28
-1.38
-1.45
-1.26
-0.72
0.02
0.67
0.95
0.77
0.28
-0.18
-0.38
-0.24
0.09
0.42
0.65
0.79
0.97
1.25
1.61
1.89
1.93
1.64
1.04
0.30
-0.36
-0.76
-0.78
-0.48
-0.05
0.27
0.32
0.08
-0.28
-0.50
-0.36
0.20
1.00
1.79
2.32
2.46
2.22
1.67
0.96
0.21
-0.49
-1.08
-1.54
-1.86
-2.07
-2.14
-2.01
-1.68
-1.17
-0.58
-0.07
0.24
0.31
0.21
0.08
0.03
0.13
0.38
0.80
1.33
1.90
2.39
2.64
2.54
2.06
1.25
0.28
-0.68
-1.46
-1.94
-2.06
-1.88
-1.52
-1.14
-0.87
-0.76
-0.76
-0.79
-0.79
-0.75
-0.66
-0.53
-0.32
-0.01
0.34
0.61
0.65
0.37
-0.15
-0.73
-1.13
-1.19
-0.87
-0.25
0.49
1.17
1.62
1.76
1.56
1.14
0.70
0.43
0.41
0.64
0.94
1.17
1.23
1.13
0.96
0.81
0.71
0.63
0.51
0.34
0.16
-0.02
-0.12
-0.12
-0.05
0.04
0.08
-0.01
-0.29
-0.69
-1.07
-1.29
-1.30
-1.17
-1.07
-1.14
-1.43
-1.83
-2.15
-2.22
-1.95
-1.43
-0.80
-0.24
0.15
0.29
0.18
-0.11
-0.48
-0.74
-0.75
-0.42
0.21
0.99
1.72
2.26
2.50
2.42
2.04
1.42
0.63
-0.15
-0.71
-0.83
-0.45
0.29
1.12
1.72
1.89
1.67
1.25
0.86
0.63
0.49
0.32
-0.02
-0.47
-0.92
-1.21
-1.30
-1.32
-1.41
-1.64
-1.89
-1.96
-1.70
-1.14
-0.49
-0.05
0.03
-0.21
-0.51
-0.65
-0.55
-0.33
-0.20
-0.28
-0.52
-0.75
-0.79
-0.62
-0.42
-0.39
-0.66
-1.15
-1.64
-1.91
-1.83
-1.43
-0.85
-0.25
0.25
0.58
0.77
0.85
0.89
0.94
1.08
1.31
1.62
1.94
2.23
2.43
2.51
2.43
2.18
1.77
1.22
0.59
-0.04
-0.62
-1.09
-1.40
-1.50
-1.33
-0.87
-0.11
0.82
1.74
2.43
2.65
2.28
1.36
0.10
-1.20
-2.22
-2.76
-2.79
-2.48
-2.02
-1.59
-1.23
-0.88
-0.48
-0.04
0.32
0.49
0.48
0.43
0.55
0.93
1.49
1.96
2.06
1.67
0.95
0.22
-0.26
-0.38
-0.27
-0.14
-0.11
-0.14
-0.04
0.36
1.08
1.94
2.60
2.80
2.40
1.53
0.55
-0.23
-0.63
-0.72
-0.71
-0.81
-1.03
-1.22
-1.20
-0.94
-0.62
-0.50
-0.70
-1.16
-1.59
-1.76
-1.61
-1.30
-1.08
-1.05
-1.13
-1.16
-1.02
-0.77
-0.56
-0.51
-0.55
-0.53
-0.33
0.07
0.52
0.88
1.09
1.20
1.28
1.36
1.35
1.12
0.62
-0.02
-0.62
-0.92
-0.84
-0.40
0.23
0.86
1.31
1.51
1.46
1.24
0.95
0.66
0.38
0.09
-0.25
-0.63
-0.96
-1.18
-1.23
-1.13
-0.98
-0.84
-0.77
-0.75
-0.72
-0.68
-0.65
-0.65
-0.67
-0.68
-0.60
-0.42
-0.20
-0.02
0.05
0.05
0.09
0.27
0.57
0.86
0.91
0.60
0.00
-0.64
-1.02
-0.96
-0.50
0.10
0.54
0.67
0.54
0.35
0.27
0.34
0.47
0.49
0.34
0.11
-0.04
0.04
0.38
0.81
1.16
1.29
1.21
1.01
0.78
0.52
0.16
-0.37
-1.07
-1.80
-2.41
-2.74
-2.75
-2.44
-1.91
-1.21
-0.41
0.43
1.22
1.79
1.97
1.68
0.94
-0.06
-1.02
-1.62
-1.65
-1.14
-0.33
0.43
0.87
0.90
0.65
0.40
0.36
0.60
1.02
1.44
1.74
1.90
1.92
1.83
1.57
1.10
0.49
-0.12
-0.52
-0.58
-0.33
0.09
0.46
0.67
0.72
0.69
0.65
0.55
0.31
-0.13
-0.70
-1.26
-1.61
-1.62
-1.32
-0.84
-0.42
-0.22
-0.28
-0.51
-0.77
-0.89
-0.82
-0.62
-0.46
-0.53
-0.95
-1.65
-2.42
-2.96
-3.04
-2.60
-1.79
-0.82
0.06
0.72
1.16
1.42
1.54
1.59
1.60
1.64
1.72
1.84
1.93
1.87
1.57
1.01
0.32
-0.29
-0.60
-0.48
0.07
0.87
1.64
2.09
2.09
1.64
0.91
0.08
-0.68
-1.30
-1.73
-1.93
-1.82
-1.41
-0.79
-0.18
0.20
0.26
0.07
-0.19
-0.33
-0.34
-0.28
-0.26
-0.32
-0.40
-0.37
-0.21
0.01
0.22
0.36
0.46
0.58
0.74
0.87
0.87
0.64
0.19
-0.39
-0.95
-1.31
-1.37
-1.12
-0.60
0.04
0.64
1.07
1.31
1.35
1.30
1.23
1.16
1.12
1.07
1.03
1.00
0.96
0.91
0.76
0.48
0.06
-0.46
-0.96
-1.38
-1.67
-1.85
-1.99
-2.09
-2.15
-2.10
-1.92
-1.60
-1.20
-0.76
-0.38
-0.07
0.12
0.13
-0.08
-0.49
-0.99
-1.39
-1.49
-1.20
-0.60
0.15
0.79
1.16
1.22
1.02
0.68
0.31
-0.05
-0.41
-0.76
-1.05
-1.15
-0.96
-0.41
0.42
1.31
2.00
2.29
2.15
1.76
1.39
1.22
1.31
1.54
1.73
1.74
1.53
1.13
0.61
-0.02
-0.69
-1.33
-1.81
-2.00
-1.82
-1.32
-0.61
0.11
0.65
0.91
0.86
0.56
0.11
-0.38
-0.80
-1.10
-1.24
-1.29
-1.25
-1.17
-1.06
-0.95
-0.83
-0.69
-0.50
-0.25
0.01
0.18
0.15
-0.15
-0.61
-1.02
-1.12
-0.77
-0.05
0.75
1.34
1.54
1.39
1.15
1.05
1.17
1.40
1.55
1.48
1.22
0.89
0.62
0.44
0.27
-0.02
-0.47
-1.04
-1.56
-1.83
-1.73
-1.27
-0.60
0.05
0.47
0.55
0.36
0.09
-0.05
0.05
0.30
0.53
0.55
0.31
-0.05
-0.34
-0.43
-0.38
-0.31
-0.37
-0.58
-0.82
-0.97
-0.92
-0.73
-0.46
-0.24
-0.10
-0.07
-0.11
-0.19
-0.24
-0.18
0.03
0.36
0.73
0.99
1.08
1.02
0.94
0.94
1.09
1.31
1.47
1.42
1.11
0.55
-0.13
-0.78
-1.22
-1.34
-1.12
-0.70
-0.30
-0.16
-0.33
-0.68
-0.89
-0.74
-0.17
0.59
1.23
1.51
1.39
1.04
0.61
0.23
-0.14
-0.52
-0.91
-1.18
-1.21
-0.96
-0.53
-0.16
-0.01
-0.17
-0.55
-1.02
-1.42
-1.63
-1.61
-1.35
-0.90
-0.34
0.24
0.79
1.25
1.62
1.87
1.94
1.77
1.37
0.84
0.33
0.02
0.01
0.27
0.68
1.06
1.22
1.07
0.55
-0.28
-1.23
-2.11
-2.71
-2.92
-2.76
-2.33
-1.75
-1.07
-0.29
0.57
1.40
1.99
2.11
1.66
0.76
-0.29
-1.10
-1.45
-1.26
-0.70
-0.01
0.55
0.81
0.74
0.47
0.20
0.09
0.23
0.54
0.84
1.00
0.97
0.84
0.70
0.60
0.47
0.17
-0.30
-0.84
-1.19
-1.18
-0.80
-0.21
0.39
0.88
1.30
1.77
2.36
2.98
3.40
3.43
3.03
2.30
1.46
0.72
0.19
-0.13
-0.25
-0.18
0.10
0.60
1.23
1.85
2.27
2.36
2.11
1.64
1.15
0.81
0.69
0.74
0.89
1.05
1.23
1.44
1.72
2.08
2.50
2.88
3.15
3.22
3.04
2.57
1.77
0.63
-0.78
-2.30
-3.74
-4.92
-5.79
-6.43
-7.00
-7.64
-8.28
-8.75
-8.82
-8.39
-7.63
-6.85
-6.39
-6.35
-6.55
-6.64
-6.30
-5.49
-4.41
-3.41
-2.75
-2.44
-2.26
-1.92
-1.29
-0.42
0.49
1.25
1.76
2.08
2.30
2.54
2.75
2.86
2.76
2.43
1.95
1.48
1.13
0.95
0.91
0.92
0.92
0.89
0.86
0.90
1.04
1.27
1.52
1.70
1.76
1.71
1.61
1.58
1.73
2.08
2.55
2.97
3.14
2.97
2.56
2.15
1.92
1.93
1.99
1.83
1.32
0.56
-0.10
-0.34
-0.12
0.34
0.62
0.45
-0.14
-0.83
-1.25
-1.24
-0.94
-0.63
-0.58
-0.82
-1.20
-1.51
-1.55
-1.31
-0.86
-0.34
0.13
0.44
0.57
0.51
0.37
0.28
0.37
0.68
1.15
1.63
2.02
2.24
2.32
2.28
2.15
1.93
1.62
1.23
0.79
0.38
0.04
-0.16
-0.18
-0.04
0.19
0.40
0.49
0.43
0.24
-0.01
-0.27
-0.56
-0.92
-1.36
-1.82
-2.13
-2.13
-1.74
-1.08
-0.43
-0.04
-0.09
-0.55
-1.18
-1.74
-1.97
-1.82
-1.39
-0.87
-0.46
-0.25
-0.18
-0.11
0.07
0.40
0.78
1.09
1.25
1.26
1.20
1.15
1.18
1.27
1.41
1.54
1.61
1.60
1.44
1.10
0.60
0.06
-0.38
-0.59
-0.58
-0.44
-0.28
-0.27
-0.38
-0.55
-0.59
-0.36
0.18
0.96
1.79
2.41
2.60
2.28
1.51
0.49
-0.56
-1.45
-2.11
-2.54
-2.79
-2.87
-2.76
-2.42
-1.85
-1.12
-0.39
0.18
0.48
0.49
0.29
0.05
-0.02
0.22
0.81
1.63
2.40
2.85
2.78
2.15
1.11
-0.04
-1.00
-1.58
-1.71
-1.46
-0.97
-0.40
0.08
0.33
0.28
-0.04
-0.50
-0.86
-0.96
-0.78
-0.45
-0.12
0.10
0.26
0.47
0.85
1.37
1.92
2.30
2.41
2.21
1.78
1.19
0.51
-0.20
-0.79
-1.13
-1.14
-0.82
-0.32
0.14
0.40
0.45
0.33
0.17
-0.02
-0.27
-0.63
-1.10
-1.57
-1.90
-1.97
-1.78
-1.42
-1.03
-0.70
-0.45
-0.24
0.00
0.29
0.57
0.72
0.60
0.15
-0.50
-1.17
-1.61
-1.72
-1.52
-1.21
-0.98
-0.92
-0.95
-0.90
-0.65
-0.18
0.36
0.83
1.15
1.40
1.65
1.93
2.18
2.22
1.96
1.42
0.76
0.18
-0.16
-0.18
0.08
0.55
1.10
1.54
1.68
1.37
0.59
-0.52
-1.63
-2.46
-2.77
-2.54
-1.88
-1.04
-0.25
0.29
0.51
0.41
0.08
-0.36
-0.78
-1.05
-1.12
-0.97
-0.60
-0.09
0.46
0.92
1.19
1.23
1.10
0.94
0.93
1.14
1.50
1.83
1.91
1.68
1.20
0.65
0.25
0.14
0.33
0.74
1.26
1.71
1.94
1.86
1.38
0.56
-0.47
-1.54
-2.45
-3.03
-3.19
-2.90
-2.17
-1.11
0.08
1.15
1.80
1.83
1.19
0.03
-1.32
-2.48
-3.11
-3.08
-2.46
-1.53
-0.62
0.04
0.33
0.36
0.25
0.14
0.03
-0.11
-0.30
-0.45
-0.39
0.02
0.76
1.59
2.19
2.23
1.69
0.81
-0.02
-0.47
-0.45
-0.13
0.22
0.44
0.49
0.52
0.67
0.94
1.27
1.47
1.46
1.25
0.91
0.53
0.14
-0.29
-0.79
-1.31
-1.78
-2.09
-2.20
-2.15
-2.02
-1.89
-1.75
-1.53
-1.10
-0.43
0.39
1.17
1.71
1.87
1.67
1.28
0.89
0.65
0.57
0.56
0.54
0.43
0.30
0.23
0.29
0.46
0.61
0.60
0.35
-0.10
-0.61
-0.98
-1.05
-0.82
-0.45
-0.13
-0.09
-0.37
-0.84
-1.26
-1.38
-1.06
-0.37
0.46
1.10
1.35
1.15
0.63
0.00
-0.50
-0.74
-0.68
-0.39
-0.00
0.31
0.38
0.13
-0.39
-0.98
-1.35
-1.26
-0.60
0.52
1.84
3.01
3.76
3.95
3.65
3.12
2.66
2.52
2.72
3.10
3.33
3.17
2.59
1.76
0.97
0.43
0.16
0.01
-0.18
-0.48
-0.75
-0.84
-0.61
-0.07
0.68
1.50
2.27
2.88
3.28
3.40
3.18
2.62
1.80
0.89
0.06
-0.53
-0.81
-0.85
-0.78
-0.79
-1.05
-1.64
-2.53
-3.59
-4.61
-5.44
-6.01
-6.36
-6.59
-6.83
-7.12
-7.40
-7.59
-7.61
-7.40
-6.98
-6.42
-5.79
-5.12
-4.43
-3.73
-3.01
-2.30
-1.61
-0.94
-0.30
0.30
0.84
1.27
1.61
1.83
2.00
2.13
2.25
2.38
2.47
2.52
2.48
2.31
2.05
1.78
1.59
1.56
1.66
1.83
1.93
1.90
1.78
1.68
1.73
1.96
2.32
2.61
2.67
2.40
1.84
1.14
0.47
-0.05
-0.38
-0.56
-0.66
-0.76
-0.91
-1.12
-1.37
-1.63
-1.83
-1.91
-1.77
-1.38
-0.74
-0.02
0.61
0.97
0.99
0.76
0.49
0.37
0.55
1.04
1.70
2.35
2.80
2.98
2.90
2.57
2.03
1.35
0.62
-0.02
-0.40
-0.43
-0.14
0.31
0.69
0.81
0.62
0.20
-0.27
-0.59
-0.63
-0.46
-0.21
-0.08
-0.20
-0.59
-1.11
-1.56
-1.74
-1.59
-1.19
-0.71
-0.29
-0.01
0.20
0.45
0.74
1.02
1.15
1.01
0.63
0.10
-0.39
-0.69
-0.72
-0.57
-0.35
-0.19
-0.11
-0.06
0.01
0.15
0.32
0.47
0.55
0.57
0.62
0.73
0.94
1.24
1.60
2.01
2.45
2.89
3.26
3.52
3.66
3.70
3.71
3.75
3.82
3.88
3.88
3.79
3.59
3.28
2.87
2.42
2.00
1.68
1.48
1.38
1.26
1.01
0.60
0.06
-0.48
-0.96
-1.29
-1.48
-1.57
-1.61
-1.68
-1.89
-2.37
-3.16
-4.24
-5.39
-6.39
-7.09
-7.50
-7.76
-8.08
-8.54
-9.05
-9.39
-9.37
-8.88
-7.99
-6.86
-5.66
-4.53
-3.52
-2.63
-1.84
-1.11
-0.36
0.42
1.27
2.13
2.97
3.74
4.47
5.11
5.59
5.76
5.43
4.59
3.37
2.07
1.03
0.47
0.40
0.65
0.97
1.16
1.12
0.91
0.67
0.49
0.49
0.65
0.91
1.20
1.45
1.62
1.71
1.71
1.61
1.40
1.07
0.68
0.33
0.10
0.01
0.05
0.17
0.31
0.44
0.52
0.48
0.27
-0.09
-0.49
-0.75
-0.72
-0.35
0.21
0.76
1.11
1.17
0.99
0.70
0.41
0.17
0.02
-0.04
-0.03
0.06
0.18
0.30
0.42
0.59
0.86
1.22
1.58
1.73
1.56
1.06
0.39
-0.22
-0.57
-0.63
-0.52
-0.37
-0.27
-0.20
-0.11
-0.00
0.05
-0.03
-0.30
-0.68
-1.05
-1.28
-1.37
-1.35
-1.30
-1.24
-1.11
-0.83
-0.36
0.23
0.78
1.13
1.18
0.97
0.63
0.30
0.05
-0.07
-0.12
-0.14
-0.14
-0.08
0.07
0.32
0.62
0.85
0.96
0.92
0.76
0.56
0.31
0.01
-0.43
-1.02
-1.68
-2.20
-2.39
-2.14
-1.53
-0.83
-0.34
-0.19
-0.31
-0.49
-0.51
-0.35
-0.17
-0.16
-0.44
-0.89
-1.30
-1.41
-1.13
-0.54
0.18
0.86
1.38
1.68
1.79
1.73
1.59
1.44
1.34
1.31
1.31
1.26
1.12
0.91
0.71
0.58
0.52
0.50
0.47
0.42
0.38
0.38
0.46
0.60
0.77
0.92
1.01
1.00
0.88
0.63
0.33
-0.00
-0.31
-0.58
-0.88
-1.23
-1.57
-1.83
-1.88
-1.69
-1.33
-0.92
-0.59
-0.37
-0.23
-0.13
-0.05
0.01
-0.00
-0.02
0.03
0.21
0.44
0.53
0.30
-0.30
-1.12
-1.86
-2.24
-2.15
-1.67
-1.00
-0.35
0.17
0.51
0.67
0.69
0.60
0.46
0.29
0.14
-0.00
-0.15
-0.29
-0.34
-0.23
0.07
0.52
0.99
1.40
1.63
1.68
1.54
1.26
0.86
0.41
-0.03
-0.41
-0.74
-1.05
-1.37
-1.69
-1.95
-2.04
-1.94
-1.63
-1.21
-0.74
-0.28
0.09
0.29
0.25
-0.03
-0.41
-0.64
-0.50
0.08
0.90
1.64
2.01
1.92
1.55
1.16
0.95
0.96
1.12
1.34
1.55
1.72
1.78
1.61
1.05
0.05
-1.29
-2.65
-3.70
-4.16
-3.91
-3.03
-1.71
-0.23
1.15
2.15
2.60
2.43
1.74
0.73
-0.36
-1.31
-1.99
-2.31
-2.24
-1.86
-1.31
-0.83
-0.57
-0.62
-0.84
-1.06
-1.12
-1.02
-0.86
-0.73
-0.65
-0.54
-0.25
0.25
0.90
1.54
2.07
2.41
2.57
2.58
2.47
2.27
1.98
1.63
1.21
0.71
0.11
-0.53
-1.05
-1.26
-1.03
-0.44
0.22
0.59
0.46
-0.08
-0.71
-1.00
-0.69
0.18
1.30
2.23
2.61
2.26
1.29
-0.05
-1.41
-2.50
-3.14
-3.31
-3.07
-2.59
-2.05
-1.50
-0.97
-0.40
0.25
0.91
1.46
1.76
1.75
1.52
1.17
0.83
0.48
0.05
-0.52
-1.15
-1.66
-1.83
-1.51
-0.85
-0.12
0.35
0.39
0.10
-0.24
-0.30
0.13
0.98
1.91
2.50
2.44
1.71
0.57
-0.48
-1.03
-0.90
-0.26
0.51
1.06
1.22
1.10
0.93
0.89
0.97
0.99
0.78
0.31
-0.26
-0.67
-0.71
-0.37
0.14
0.55
0.65
0.41
0.01
-0.28
-0.25
0.10
0.61
0.98
0.95
0.47
-0.32
-1.05
-1.40
-1.23
-0.67
-0.02
0.37
0.31
-0.13
-0.74
-1.23
-1.41
-1.28
-1.00
-0.82
-0.89
-1.17
-1.46
-1.49
-1.08
-0.27
0.65
1.34
1.49
1.05
0.21
-0.67
-1.28
-1.41
-1.02
-0.16
1.05
2.37
3.51
4.19
4.21
3.58
2.55
1.46
0.54
-0.13
-0.61
-0.96
-1.15
-1.05
-0.65
-0.09
0.35
0.46
0.24
-0.08
-0.25
-0.17
-0.02
-0.07
-0.46
-1.02
-1.31
-0.93
0.15
1.57
2.73
3.12
2.62
1.45
0.09
-1.03
-1.66
-1.75
-1.42
-0.87
-0.31
0.10
0.26
0.16
-0.15
-0.56
-0.94
-1.22
-1.37
-1.41
-1.36
-1.23
-1.04
-0.78
-0.46
-0.14
0.08
0.10
-0.16
-0.63
-1.12
-1.36
-1.14
-0.43
0.55
1.46
1.92
1.76
1.02
-0.01
-0.99
-1.63
-1.81
-1.61
-1.22
-0.82
-0.53
-0.37
-0.28
-0.18
0.02
0.31
0.63
0.92
1.11
1.16
1.10
0.98
0.81
0.60
0.32
-0.04
-0.42
-0.70
-0.81
-0.70
-0.43
-0.10
0.20
0.37
0.40
0.31
0.19
0.13
0.25
0.66
1.34
2.15
2.80
2.99
2.54
1.49
0.12
-1.16
-2.04
-2.34
-2.18
-1.80
-1.46
-1.32
-1.33
-1.32
-1.12
-0.73
-0.31
-0.11
-0.26
-0.72
-1.25
-1.50
-1.33
-0.77
-0.11
0.37
0.47
0.29
0.07
0.07
0.39
0.91
1.37
1.53
1.28
0.74
0.18
-0.12
0.00
0.47
1.01
1.29
1.18
0.73
0.20
-0.07
0.06
0.57
1.19
1.70
1.96
2.02
1.98
1.93
1.82
1.51
0.93
0.14
-0.67
-1.28
-1.54
-1.45
-1.13
-0.77
-0.54
-0.52
-0.69
-0.92
-1.07
-0.98
-0.63
-0.12
0.29
0.35
-0.06
-0.86
-1.73
-2.35
-2.54
-2.37
-2.07
-1.87
-1.78
-1.64
-1.23
-0.45
0.55
1.44
1.89
1.77
1.27
0.76
0.57
0.82
1.41
2.06
2.51
2.61
2.39
1.97
1.54
1.25
1.19
1.35
1.56
1.68
1.59
1.31
0.93
0.59
0.33
0.12
-0.11
-0.33
-0.43
-0.30
0.06
0.45
0.60
0.33
-0.31
-1.07
-1.65
-1.93
-2.05
-2.20
-2.47
-2.71
-2.62
-1.95
-0.74
0.61
1.60
1.84
1.29
0.27
-0.74
-1.33
-1.31
-0.77
0.01
0.75
1.17
1.21
0.92
0.45
-0.02
-0.33
-0.44
-0.35
-0.11
0.22
0.58
0.92
1.18
1.32
1.38
1.44
1.62
2.01
2.59
3.19
3.63
3.81
3.74
3.59
3.52
3.58
3.65
3.51
3.01
2.17
1.23
0.54
0.38
0.80
1.57
2.27
2.58
2.37
1.79
1.15
0.70
0.55
0.55
0.53
0.38
0.09
-0.18
-0.31
-0.26
-0.14
-0.06
-0.15
-0.42
-0.85
-1.34
-1.79
-2.08
-2.09
-1.73
-1.02
-0.12
0.71
1.21
1.26
0.91
0.39
-0.03
-0.17
-0.01
0.32
0.61
0.71
0.59
0.30
-0.07
-0.47
-0.91
-1.41
-1.98
-2.48
-2.73
-2.61
-2.09
-1.33
-0.58
-0.06
0.16
0.21
0.25
0.40
0.63
0.81
0.86
0.80
0.78
0.92
1.20
1.49
1.62
1.51
1.24
1.04
1.04
1.33
1.81
2.34
2.85
3.30
3.77
4.26
4.70
5.00
5.07
4.89
4.45
3.79
2.92
1.86
0.66
-0.56
-1.68
-2.61
-3.29
-3.76
-4.09
-4.42
-4.87
-5.46
-6.10
-6.61
-6.74
-6.41
-5.74
-5.02
-4.57
-4.60
-5.06
-5.70
-6.22
-6.43
-6.31
-5.98
-5.57
-5.16
-4.74
-4.26
-3.68
-3.04
-2.41
-1.92
-1.64
-1.59
-1.65
-1.64
-1.37
-0.82
-0.15
0.29
0.21
-0.45
-1.46
-2.46
-3.13
-3.32
-3.13
-2.71
-2.19
-1.64
-1.11
-0.72
-0.65
-1.06
-1.94
-3.02
-3.90
-4.19
-3.77
-2.82
-1.72
-0.86
-0.44
-0.46
-0.74
-1.11
-1.45
-1.76
-2.11
-2.51
-2.88
-3.13
-3.14
-2.99
-2.84
-2.87
-3.11
-3.37
-3.36
-2.81
-1.73
-0.40
0.77
1.46
1.63
1.51
1.42
1.57
1.92
2.22
2.30
2.14
1.91
1.83
2.02
2.41
2.85
3.17
3.30
3.23
2.98
2.59
2.08
1.55
1.07
0.69
0.40
0.14
-0.14
-0.43
-0.66
-0.79
-0.84
-0.91
-1.07
-1.29
-1.44
-1.35
-0.92
-0.25
0.48
1.04
1.29
1.25
1.01
0.73
0.51
0.44
0.59
0.96
1.50
2.10
2.63
2.94
2.95
2.66
2.15
1.59
1.13
0.91
0.94
1.16
1.46
1.69
1.81
1.83
1.83
1.89
2.03
2.21
2.34
2.30
2.05
1.65
1.21
0.89
0.81
0.98
1.30
1.59
1.70
1.61
1.41
1.25
1.19
1.20
1.18
1.04
0.77
0.46
0.22
0.04
-0.14
-0.43
-0.83
-1.25
-1.50
-1.49
-1.26
-0.95
-0.73
-0.61
-0.48
-0.16
0.41
1.09
1.62
1.67
1.15
0.17
-0.89
-1.61
-1.72
-1.18
-0.22
0.80
1.55
1.83
1.68
1.30
0.93
0.78
0.87
1.10
1.27
1.25
1.02
0.68
0.42
0.35
0.54
0.95
1.47
2.05
2.60
3.07
3.33
3.28
2.86
2.11
1.21
0.34
-0.36
-0.87
-1.26
-1.58
-1.80
-1.84
-1.63
-1.23
-0.90
-0.87
-1.30
-2.14
-3.09
-3.83
-4.08
-3.77
-3.06
-2.17
-1.38
-0.84
-0.58
-0.56
-0.71
-0.96
-1.28
-1.64
-2.00
-2.22
-2.17
-1.76
-1.07
-0.28
0.37
0.72
0.73
0.57
0.41
0.36
0.44
0.58
0.71
0.83
0.98
1.21
1.47
1.64
1.51
1.01
0.19
-0.75
-1.55
-2.02
-2.11
-1.91
-1.58
-1.30
-1.17
-1.17
-1.22
-1.23
-1.14
-0.94
-0.68
-0.46
-0.35
-0.39
-0.52
-0.64
-0.64
-0.45
-0.10
0.31
0.61
0.63
0.24
-0.49
-1.39
-2.17
-2.57
-2.47
-1.95
-1.20
-0.48
0.08
0.45
0.69
0.89
1.13
1.43
1.76
2.09
2.33
2.40
2.23
1.88
1.47
1.16
1.03
1.01
0.97
0.77
0.45
0.17
0.15
0.47
1.02
1.52
1.76
1.65
1.33
1.00
0.82
0.82
0.92
1.05
1.18
1.33
1.52
1.75
1.92
1.98
1.89
1.67
1.40
1.12
0.86
0.61
0.39
0.19
0.07
0.01
-0.00
-0.04
-0.18
-0.44
-0.82
-1.25
-1.63
-1.83
-1.72
-1.23
-0.39
0.63
1.55
2.07
1.96
1.21
0.04
-1.14
-1.94
-2.11
-1.65
-0.80
0.10
0.79
1.16
1.25
1.12
0.85
0.45
-0.02
-0.43
-0.62
-0.47
-0.05
0.47
0.82
0.85
0.62
0.33
0.22
0.35
0.65
0.94
1.09
1.12
1.10
1.10
1.10
1.00
0.76
0.43
0.14
-0.02
-0.05
-0.07
-0.19
-0.43
-0.71
-0.90
-0.90
-0.74
-0.47
-0.14
0.21
0.52
0.71
0.60
0.06
-0.84
-1.88
-2.66
-2.88
-2.48
-1.64
-0.73
-0.08
0.16
0.05
-0.21
-0.42
-0.43
-0.21
0.20
0.73
1.31
1.84
2.22
2.28
1.90
1.08
0.02
-0.93
-1.39
-1.16
-0.35
0.67
1.48
1.78
1.56
1.03
0.51
0.22
0.24
0.45
0.69
0.78
0.59
0.07
-0.69
-1.49
-2.07
-2.22
-1.88
-1.18
-0.38
0.25
0.54
0.45
0.04
-0.62
-1.42
-2.28
-3.04
-3.49
-3.47
-2.95
-2.01
-0.92
0.06
0.71
0.95
0.84
0.52
0.19
-0.01
-0.04
0.04
0.10
0.02
-0.21
-0.53
-0.80
-0.96
-1.03
-1.09
-1.17
-1.20
-1.04
-0.62
0.01
0.66
1.05
1.02
0.55
-0.17
-0.86
-1.26
-1.26
-0.87
-0.23
0.44
0.91
1.03
0.79
0.38
0.06
0.07
0.42
0.91
1.24
1.17
0.70
0.05
-0.54
-0.86
-0.90
-0.68
-0.22
0.47
1.37
2.29
2.94
2.99
2.27
0.94
-0.49
-1.53
-1.82
-1.32
-0.32
0.84
1.84
2.52
2.84
2.78
2.35
1.60
0.66
-0.26
-0.93
-1.18
-0.99
-0.45
0.27
0.97
1.52
1.84
1.90
1.78
1.56
1.34
1.19
1.07
0.89
0.60
0.14
-0.40
-0.88
-1.16
-1.14
-0.87
-0.44
0.03
0.47
0.80
0.99
0.99
0.78
0.36
-0.25
-0.95
-1.68
-2.34
-2.83
-3.06
-2.94
-2.44
-1.58
-0.48
0.68
1.69
2.39
2.67
2.53
2.05
1.32
0.49
-0.29
-0.87
-1.11
-0.97
-0.47
0.24
0.95
1.43
1.52
1.22
0.65
0.03
-0.48
-0.85
-1.12
-1.37
-1.57
-1.66
-1.55
-1.29
-1.00
-0.84
-0.86
-0.97
-0.98
-0.78
-0.37
0.09
0.37
0.37
0.19
0.05
0.14
0.50
1.02
1.50
1.75
1.67
1.31
0.78
0.26
-0.12
-0.31
-0.32
-0.26
-0.18
-0.13
-0.05
0.14
0.44
0.80
1.02
0.99
0.64
0.03
-0.70
-1.43
-2.01
-2.31
-2.17
-1.52
-0.46
0.74
1.69
2.09
1.87
1.19
0.37
-0.29
-0.68
-0.81
-0.72
-0.45
0.04
0.74
1.54
2.23
2.56
2.41
1.77
0.83
-0.18
-1.05
-1.64
-1.94
-2.04
-2.07
-2.10
-2.13
-2.08
-1.91
-1.63
-1.39
-1.30
-1.42
-1.65
-1.79
-1.66
-1.23
-0.64
-0.10
0.20
0.21
-0.02
-0.42
-0.93
-1.55
-2.21
-2.80
-3.19
-3.23
-2.88
-2.24
-1.47
-0.72
-0.09
0.37
0.65
0.71
0.57
0.33
0.14
0.21
0.66
1.44
2.36
3.11
3.45
3.27
2.63
1.76
0.91
0.30
-0.01
-0.07
-0.03
0.00
0.01
0.07
0.33
0.86
1.58
2.25
2.57
2.33
1.57
0.53
-0.41
-0.90
-0.84
-0.39
0.09
0.28
0.05
-0.42
-0.83
-0.85
-0.36
0.48
1.33
1.87
1.93
1.59
1.05
0.52
0.07
-0.34
-0.76
-1.13
-1.29
-1.06
-0.38
0.52
1.27
1.50
1.04
0.05
-1.10
-1.95
-2.23
-1.94
-1.32
-0.69
-0.23
-0.01
0.07
0.10
0.13
0.13
0.04
-0.13
-0.29
-0.27
0.08
0.76
1.66
2.53
3.12
3.28
3.02
2.49
1.91
1.48
1.32
1.38
1.55
1.66
1.57
1.23
0.66
-0.05
-0.75
-1.35
-1.79
-2.08
-2.24
-2.28
-2.14
-1.76
-1.14
-0.39
0.28
0.70
0.74
0.50
0.18
-0.01
0.03
0.33
0.78
1.29
1.83
2.34
2.81
3.13
3.23
3.02
2.55
1.96
1.45
1.22
1.32
1.68
2.10
2.36
2.29
1.86
1.14
0.33
-0.36
-0.78
-0.88
-0.74
-0.45
-0.10
0.23
0.53
0.69
0.64
0.23
-0.52
-1.51
-2.43
-2.96
-2.90
-2.32
-1.48
-0.70
-0.20
0.02
0.05
0.03
-0.02
-0.15
-0.38
-0.65
-0.86
-0.92
-0.83
-0.70
-0.60
-0.54
-0.40
-0.11
0.30
0.69
0.90
0.83
0.59
0.36
0.23
0.22
0.19
-0.01
-0.46
-1.10
-1.77
-2.33
-2.62
-2.58
-2.21
-1.66
-1.15
-0.89
-1.03
-1.54
-2.17
-2.63
-2.71
-2.34
-1.65
-0.86
-0.18
0.28
0.50
0.53
0.44
0.30
0.16
0.04
-0.10
-0.26
-0.46
-0.61
-0.61
-0.37
0.05
0.53
0.88
0.97
0.78
0.38
-0.04
-0.35
-0.47
-0.42
-0.32
-0.25
-0.31
-0.50
-0.76
-0.98
-1.03
-0.88
-0.62
-0.38
-0.31
-0.36
-0.39
-0.21
0.28
0.98
1.62
1.98
1.94
1.59
1.06
0.49
-0.09
-0.67
-1.20
-1.56
-1.60
-1.25
-0.67
-0.10
0.19
0.07
-0.32
-0.78
-1.10
-1.16
-1.01
-0.74
-0.48
-0.30
-0.19
-0.12
-0.07
-0.03
-0.04
-0.12
-0.32
-0.59
-0.89
-1.13
-1.22
-1.17
-1.00
-0.77
-0.53
-0.26
0.06
0.43
0.81
1.14
1.36
1.48
1.48
1.38
1.22
1.01
0.80
0.66
0.65
0.84
1.16
1.48
1.66
1.58
1.27
0.85
0.49
0.32
0.36
0.51
0.63
0.62
0.45
0.19
-0.07
-0.26
-0.43
-0.60
-0.81
-0.99
-1.06
-0.94
-0.69
-0.39
-0.24
-0.35
-0.74
-1.27
-1.69
-1.77
-1.42
-0.73
0.08
0.72
1.00
0.90
0.59
0.30
0.20
0.25
0.32
0.22
-0.15
-0.71
-1.27
-1.65
-1.75
-1.63
-1.37
-1.08
-0.78
-0.44
-0.06
0.35
0.68
0.84
0.78
0.52
0.18
-0.10
-0.20
-0.10
0.16
0.49
0.75
0.85
0.69
0.26
-0.39
-1.09
-1.60
-1.76
-1.45
-0.84
-0.18
0.21
0.19
-0.14
-0.50
-0.58
-0.26
0.31
0.87
1.16
1.13
0.89
0.64
0.53
0.50
0.47
0.36
0.26
0.29
0.52
0.86
1.15
1.16
0.81
0.26
-0.28
-0.58
-0.54
-0.24
0.11
0.32
0.28
0.01
-0.30
-0.46
-0.32
0.08
0.56
0.87
0.81
0.43
-0.06
-0.38
-0.38
-0.16
0.06
0.08
-0.14
-0.43
-0.51
-0.23
0.34
0.93
1.24
1.10
0.57
-0.11
-0.66
-0.89
-0.74
-0.32
0.15
0.46
0.45
0.07
-0.56
-1.28
-1.89
-2.24
-2.24
-1.96
-1.51
-1.07
-0.79
-0.71
-0.78
-0.84
-0.77
-0.54
-0.25
-0.05
-0.08
-0.33
-0.65
-0.85
-0.83
-0.63
-0.38
-0.22
-0.15
-0.07
0.13
0.44
0.70
0.76
0.53
0.16
-0.12
-0.07
0.35
0.98
1.55
1.81
1.66
1.20
0.65
0.29
0.29
0.64
1.16
1.57
1.58
1.12
0.32
-0.52
-1.08
-1.20
-0.93
-0.48
-0.02
0.36
0.70
1.07
1.46
1.79
1.88
1.65
1.08
0.26
-0.63
-1.39
-1.84
-1.86
-1.47
-0.87
-0.30
-0.03
-0.21
-0.79
-1.54
-2.20
-2.59
-2.60
-2.31
-1.82
-1.33
-0.95
-0.73
-0.59
-0.39
-0.02
0.59
1.29
1.83
2.02
1.85
1.46
1.08
0.87
0.81
0.79
0.68
0.50
0.34
0.28
0.34
0.36
0.20
-0.17
-0.63
-0.97
-1.05
-0.85
-0.49
-0.11
0.22
0.50
0.79
1.08
1.28
1.28
0.99
0.44
-0.24
-0.87
-1.27
-1.31
-0.94
-0.25
0.58
1.30
1.68
1.55
0.91
-0.08
-1.16
-2.05
-2.57
-2.63
-2.29
-1.67
-0.93
-0.21
0.39
0.84
1.13
1.22
1.09
0.70
0.14
-0.43
-0.82
-0.91
-0.76
-0.55
-0.46
-0.56
-0.67
-0.53
0.03
0.95
1.92
2.55
2.54
1.91
0.92
-0.03
-0.58
-0.64
-0.31
0.16
0.54
0.71
0.68
0.55
0.40
0.22
-0.09
-0.56
-1.12
-1.56
-1.55
-0.96
0.12
1.30
2.08
2.17
1.65
0.91
0.40
0.35
0.63
0.89
0.80
0.28
-0.46
-1.11
-1.48
-1.55
-1.46
-1.36
-1.24
-1.05
-0.67
-0.16
0.38
0.72
0.77
0.55
0.19
-0.16
-0.35
-0.38
-0.34
-0.33
-0.49
-0.81
-1.17
-1.42
-1.41
-1.12
-0.62
-0.07
0.46
0.95
1.45
1.99
2.50
2.85
2.87
2.51
1.86
1.12
0.49
0.06
-0.18
-0.35
-0.54
-0.79
-1.01
-1.07
-0.88
-0.42
0.23
0.88
1.31
1.35
0.93
0.13
-0.82
-1.65
-2.16
-2.24
-1.99
-1.56
-1.10
-0.70
-0.36
-0.02
0.34
0.72
1.09
1.39
1.59
1.69
1.71
1.65
1.52
1.34
1.10
0.83
0.52
0.23
-0.01
-0.15
-0.15
-0.03
0.14
0.30
0.40
0.43
0.40
0.29
0.12
-0.12
-0.36
-0.52
-0.51
-0.30
0.04
0.39
0.62
0.68
0.61
0.55
0.59
0.79
1.11
1.46
1.67
1.63
1.32
0.80
0.26
-0.13
-0.30
-0.27
-0.21
-0.24
-0.42
-0.72
-1.03
-1.29
-1.51
-1.76
-2.07
-2.38
-2.57
-2.49
-2.16
-1.71
-1.36
-1.22
-1.25
-1.25
-1.00
-0.41
0.40
1.19
1.72
1.89
1.76
1.47
1.19
1.00
0.91
0.84
0.77
0.68
0.56
0.44
0.34
0.27
0.29
0.42
0.65
0.90
1.07
1.10
0.96
0.68
0.33
-0.02
-0.28
-0.35
-0.24
0.00
0.22
0.25
-0.00
-0.46
-0.96
-1.28
-1.35
-1.18
-0.90
-0.63
-0.45
-0.35
-0.37
-0.50
-0.73
-0.98
-1.15
-1.12
-0.88
-0.54
-0.28
-0.23
-0.42
-0.76
-1.09
-1.26
-1.15
-0.76
-0.18
0.44
0.90
1.06
0.92
0.59
0.27
0.13
0.15
0.24
0.20
-0.06
-0.50
-0.98
-1.36
-1.55
-1.57
-1.51
-1.45
-1.43
-1.46
-1.51
-1.54
-1.51
-1.42
-1.25
-1.06
-0.92
-0.90
-1.00
-1.13
-1.19
-1.05
-0.70
-0.19
0.30
0.58
0.57
0.33
0.04
-0.11
0.00
0.32
0.71
1.02
1.19
1.27
1.41
1.69
2.08
2.46
2.64
2.53
2.15
1.68
1.29
1.06
0.93
0.75
0.40
-0.10
-0.56
-0.75
-0.53
-0.00
0.56
0.86
0.75
0.32
-0.16
-0.40
-0.29
0.14
0.67
1.11
1.35
1.42
1.42
1.42
1.41
1.33
1.11
0.78
0.41
0.15
0.09
0.24
0.51
0.80
0.96
0.98
0.86
0.65
0.38
0.05
-0.34
-0.72
-1.00
-1.03
-0.75
-0.19
0.49
1.11
1.48
1.59
1.52
1.43
1.37
1.31
1.10
0.66
0.04
-0.57
-0.94
-1.01
-0.86
-0.74
-0.80
-1.02
-1.23
-1.20
-0.88
-0.40
-0.01
0.09
-0.07
-0.32
-0.42
-0.29
0.02
0.32
0.40
0.22
-0.14
-0.49
-0.61
-0.42
-0.01
0.48
0.81
0.89
0.78
0.65
0.70
1.00
1.48
1.97
2.28
2.30
2.08
1.69
1.22
0.77
0.43
0.32
0.53
1.05
1.69
2.13
2.10
1.44
0.26
-1.16
-2.46
-3.34
-3.65
-3.39
-2.67
-1.72
-0.81
-0.17
0.06
-0.04
-0.30
-0.51
-0.55
-0.48
-0.43
-0.47
-0.55
-0.57
-0.45
-0.23
-0.07
-0.13
-0.42
-0.82
-1.18
-1.42
-1.58
-1.77
-2.02
-2.20
-2.11
-1.65
-0.87
0.00
0.68
1.02
1.03
0.77
0.33
-0.28
-1.00
-1.72
-2.22
-2.33
-1.97
-1.32
-0.68
-0.32
-0.39
-0.80
-1.32
-1.66
-1.64
-1.23
-0.53
0.27
0.96
1.37
1.49
1.34
1.03
0.58
0.01
-0.65
-1.31
-1.79
-1.91
-1.60
-0.97
-0.25
0.28
0.49
0.42
0.26
0.24
0.45
0.87
1.35
1.74
1.93
1.89
1.63
1.20
0.67
0.11
-0.40
-0.77
-0.91
-0.71
-0.16
0.63
1.42
1.87
1.71
0.91
-0.36
-1.72
-2.79
-3.31
-3.25
-2.77
-2.07
-1.39
-0.81
-0.38
-0.10
-0.01
-0.11
-0.38
-0.69
-0.91
-0.91
-0.66
-0.18
0.39
0.93
1.32
1.48
1.43
1.23
1.02
0.88
0.88
0.97
1.04
1.06
1.01
0.99
1.08
1.29
1.55
1.80
1.95
2.01
1.99
1.87
1.63
1.28
0.88
0.56
0.42
0.44
0.45
0.25
-0.26
-0.97
-1.69
-2.16
-2.30
-2.12
-1.77
-1.34
-0.83
-0.24
0.46
1.18
1.75
1.97
1.74
1.08
0.16
-0.75
-1.39
-1.61
-1.48
-1.20
-1.05
-1.20
-1.55
-1.86
-1.88
-1.48
-0.77
0.01
0.57
0.75
0.59
0.26
-0.02
-0.14
-0.08
0.08
0.20
0.22
0.14
0.06
0.05
0.13
0.21
0.14
-0.15
-0.64
-1.16
-1.49
-1.45
-1.02
-0.38
0.23
0.60
0.64
0.48
0.33
0.36
0.64
1.06
1.34
1.26
0.70
-0.18
-1.06
-1.58
-1.52
-0.93
-0.07
0.73
1.20
1.32
1.25
1.19
1.31
1.60
1.89
2.01
1.85
1.48
1.06
0.71
0.47
0.23
-0.11
-0.55
-0.92
-1.00
-0.61
0.15
1.00
1.54
1.48
0.77
-0.38
-1.61
-2.59
-3.09
-3.05
-2.53
-1.65
-0.65
0.23
0.78
0.89
0.63
0.15
-0.34
-0.73
-0.97
-1.09
-1.08
-0.89
-0.48
0.08
0.60
0.88
0.83
0.50
0.12
-0.08
0.00
0.37
0.90
1.44
1.86
2.08
2.03
1.71
1.22
0.71
0.34
0.19
0.18
0.18
0.05
-0.18
-0.35
-0.28
0.02
0.39
0.60
0.47
-0.00
-0.64
-1.22
-1.56
-1.61
-1.44
-1.15
-0.88
-0.71
-0.68
-0.78
-0.90
-0.89
-0.60
-0.01
0.75
1.42
1.80
1.79
1.53
1.25
1.14
1.29
1.56
1.74
1.63
1.20
0.57
0.02
-0.25
-0.17
0.12
0.37
0.43
0.27
0.06
0.01
0.22
0.58
0.90
0.99
0.86
0.64
0.50
0.48
0.53
0.46
0.18
-0.35
-1.03
-1.76
-2.40
-2.85
-3.00
-2.76
-2.11
-1.18
-0.24
0.42
0.61
0.38
-0.05
-0.43
-0.58
-0.46
-0.16
0.20
0.52
0.72
0.70
0.42
-0.08
-0.64
-1.03
-1.05
-0.67
-0.06
0.48
0.75
0.71
0.47
0.28
0.25
0.39
0.59
0.70
0.66
0.51
0.33
0.23
0.25
0.40
0.59
0.70
0.61
0.28
-0.22
-0.75
-1.17
-1.40
-1.50
-1.60
-1.77
-1.96
-2.04
-1.89
-1.48
-0.96
-0.52
-0.27
-0.18
-0.15
-0.06
0.13
0.38
0.62
0.82
0.97
1.08
1.10
0.95
0.63
0.20
-0.18
-0.34
-0.29
-0.13
-0.05
-0.16
-0.39
-0.56
-0.56
-0.38
-0.15
0.01
0.12
0.36
0.92
1.80
2.76
3.38
3.36
2.68
1.67
0.75
0.18
-0.05
-0.22
-0.61
-1.31
-2.14
-2.79
-3.01
-2.75
-2.20
-1.60
-1.14
-0.84
-0.59
-0.23
0.28
0.84
1.20
1.15
0.65
-0.10
-0.77
-1.04
-0.84
-0.33
0.17
0.41
0.35
0.13
-0.01
0.07
0.32
0.57
0.61
0.45
0.16
-0.11
-0.22
-0.21
-0.15
-0.08
-0.00
0.12
0.29
0.48
0.62
0.68
0.68
0.70
0.80
0.98
1.14
1.13
0.86
0.37
-0.18
-0.59
-0.72
-0.60
-0.37
-0.25
-0.34
-0.64
-0.98
-1.17
-1.09
-0.74
-0.20
0.40
0.99
1.51
1.91
2.07
1.95
1.56
1.07
0.70
0.62
0.81
1.11
1.23
1.02
0.50
-0.16
-0.73
-1.06
-1.20
-1.26
-1.36
-1.49
-1.56
-1.44
-1.05
-0.41
0.38
1.11
1.63
1.83
1.74
1.45
1.11
0.78
0.43
-0.04
-0.67
-1.35
-1.85
-1.99
-1.75
-1.30
-0.95
-0.87
-0.98
-1.01
-0.71
-0.05
0.64
0.94
0.58
-0.34
-1.42
-2.14
-2.18
-1.64
-0.88
-0.31
-0.16
-0.39
-0.77
-1.02
-0.98
-0.63
-0.08
0.49
0.91
1.11
1.07
0.88
0.67
0.59
0.67
0.94
1.30
1.66
1.96
2.18
2.31
2.34
2.22
1.87
1.25
0.38
-0.62
-1.56
-2.24
-2.51
-2.32
-1.74
-0.95
-0.18
0.39
0.64
0.53
0.10
-0.52
-1.21
-1.79
-2.09
-2.05
-1.70
-1.18
-0.66
-0.22
0.08
0.31
0.49
0.59
0.56
0.41
0.23
0.14
0.30
0.68
1.12
1.42
1.44
1.21
0.93
0.75
0.76
0.88
0.95
0.86
0.56
0.12
-0.39
-0.91
-1.43
-1.94
-2.29
-2.35
-2.02
-1.32
-0.47
0.23
0.56
0.49
0.18
-0.11
-0.21
-0.08
0.15
0.31
0.28
0.08
-0.18
-0.39
-0.51
-0.59
-0.70
-0.86
-0.99
-1.00
-0.85
-0.60
-0.37
-0.32
-0.51
-0.87
-1.24
-1.45
-1.40
-1.10
-0.63
-0.12
0.30
0.54
0.53
0.21
-0.46
-1.40
-2.45
-3.36
-3.90
-3.92
-3.45
-2.69
-1.91
-1.36
-1.16
-1.28
-1.58
-1.89
-1.97
-1.65
-0.87
0.29
1.59
2.71
3.39
3.52
3.20
2.61
2.00
1.51
1.19
1.02
0.98
1.08
1.32
1.69
2.14
2.59
2.98
3.29
3.47
3.46
3.23
2.81
2.36
2.07
2.10
2.44
2.89
3.15
3.03
2.53
1.79
1.06
0.46
0.00
-0.37
-0.69
-0.93
-1.01
-0.85
-0.54
-0.23
-0.12
-0.25
-0.49
-0.59
-0.36
0.24
0.99
1.61
1.83
1.63
1.15
0.65
0.32
0.21
0.21
0.19
0.15
0.18
0.47
1.13
2.03
2.87
3.28
3.05
2.17
0.92
-0.35
-1.35
-1.96
-2.22
-2.30
-2.32
-2.36
-2.42
-2.49
-2.56
-2.62
-2.67
-2.69
-2.67
-2.61
-2.49
-2.29
-1.96
-1.46
-0.82
-0.15
0.35
0.54
0.39
0.06
-0.22
-0.25
0.06
0.60
1.20
1.67
1.88
1.80
1.47
0.98
0.44
-0.02
-0.28
-0.26
-0.03
0.32
0.59
0.68
0.59
0.44
0.44
0.70
1.15
1.60
1.81
1.63
1.11
0.42
-0.24
-0.79
-1.28
-1.82
-2.44
-3.06
-3.53
-3.74
-3.70
-3.53
-3.32
-3.03
-2.53
-1.70
-0.57
0.63
1.60
2.09
2.04
1.56
0.87
0.18
-0.37
-0.68
-0.74
-0.52
-0.06
0.51
1.00
1.24
1.16
0.81
0.38
0.06
-0.04
0.08
0.30
0.47
0.51
0.38
0.17
0.00
-0.05
-0.02
-0.00
-0.12
-0.39
-0.77
-1.19
-1.60
-1.98
-2.33
-2.61
-2.73
-2.60
-2.26
-1.86
-1.63
-1.69
-1.97
-2.19
-2.08
-1.47
-0.50
0.52
1.28
1.61
1.60
1.41
1.21
1.04
0.87
0.65
0.45
0.35
0.43
0.70
1.06
1.35
1.40
1.17
0.75
0.31
0.05
0.09
0.45
1.00
1.53
1.88
1.99
1.86
1.54
1.06
0.42
-0.37
-1.19
-1.83
-2.05
-1.74
-1.03
-0.20
0.40
0.61
0.52
0.35
0.34
0.57
0.85
0.95
0.75
0.29
-0.22
-0.56
-0.66
-0.57
-0.43
-0.29
-0.12
0.19
0.68
1.26
1.71
1.84
1.56
0.98
0.31
-0.23
-0.56
-0.70
-0.74
-0.76
-0.76
-0.68
-0.48
-0.14
0.33
0.85
1.33
1.69
1.82
1.65
1.19
0.52
-0.22
-0.87
-1.36
-1.64
-1.77
-1.82
-1.80
-1.70
-1.48
-1.09
-0.54
0.11
0.72
1.15
1.34
1.32
1.27
1.39
1.78
2.34
2.70
2.49
1.55
0.03
-1.52
-2.55
-2.70
-2.07
-1.09
-0.35
-0.22
-0.66
-1.28
-1.59
-1.27
-0.35
0.81
1.79
2.27
2.22
1.84
1.30
0.68
-0.09
-1.10
-2.30
-3.41
-4.02
-3.84
-2.87
-1.47
-0.15
0.72
1.04
0.98
0.80
0.68
0.60
0.52
0.41
0.37
0.51
0.87
1.36
1.78
1.94
1.81
1.48
1.08
0.72
0.41
0.10
-0.20
-0.43
-0.50
-0.36
-0.03
0.41
0.87
1.30
1.67
1.91
1.97
1.81
1.50
1.15
0.91
0.86
1.02
1.27
1.47
1.48
1.22
0.59
-0.42
-1.70
-3.00
-4.01
-4.43
-4.17
-3.36
-2.31
-1.36
-0.71
-0.42
-0.45
-0.75
-1.27
-1.93
-2.54
-2.83
-2.60
-1.80
-0.60
0.66
1.62
2.05
1.91
1.32
0.54
-0.21
-0.70
-0.87
-0.76
-0.50
-0.24
-0.07
-0.00
0.00
-0.03
-0.08
-0.18
-0.28
-0.28
-0.05
0.45
1.07
1.52
1.54
1.04
0.19
-0.70
-1.32
-1.52
-1.37
-1.06
-0.76
-0.55
-0.40
-0.29
-0.23
-0.23
-0.33
-0.51
-0.70
-0.79
-0.73
-0.45
0.04
0.69
1.42
2.14
2.73
3.09
3.11
2.73
1.94
0.91
-0.12
-0.84
-1.05
-0.72
-0.02
0.77
1.44
1.91
2.22
2.41
2.40
2.02
1.18
-0.04
-1.28
-2.11
-2.23
-1.68
-0.84
-0.12
0.12
-0.14
-0.69
-1.22
-1.53
-1.59
-1.43
-1.13
-0.67
-0.07
0.61
1.23
1.60
1.60
1.24
0.68
0.11
-0.27
-0.36
-0.10
0.43
1.11
1.74
2.12
2.09
1.66
0.95
0.21
-0.34
-0.52
-0.34
0.11
0.67
1.19
1.52
1.60
1.40
1.00
0.54
0.20
0.11
0.28
0.57
0.78
0.78
0.52
0.08
-0.45
-0.94
-1.33
-1.58
-1.65
-1.50
-1.11
-0.52
0.19
0.83
1.24
1.34
1.12
0.64
-0.02
-0.79
-1.63
-2.46
-3.14
-3.49
-3.40
-2.83
-1.90
-0.84
0.14
0.86
1.29
1.45
1.36
1.04
0.50
-0.15
-0.63
-0.65
-0.04
1.10
2.37
3.22
3.24
2.38
0.94
-0.50
-1.44
-1.61
-1.06
-0.07
0.95
1.70
1.98
1.78
1.16
0.25
-0.77
-1.70
-2.35
-2.59
-2.37
-1.74
-0.83
0.16
0.99
1.46
1.52
1.29
1.00
0.91
1.14
1.59
2.04
2.27
2.26
2.16
2.17
2.32
2.44
2.20
1.36
0.07
-1.25
-2.05
-2.04
-1.31
-0.29
0.51
0.80
0.57
0.00
-0.70
-1.45
-2.22
-2.97
-3.55
-3.74
-3.37
-2.48
-1.29
-0.15
0.61
0.86
0.64
0.14
-0.45
-0.98
-1.37
-1.64
-1.82
-1.93
-1.95
-1.81
-1.41
-0.73
0.20
1.24
2.20
2.89
3.21
3.16
2.82
2.29
1.64
0.92
0.18
-0.43
-0.82
-0.84
-0.54
-0.08
0.28
0.34
0.07
-0.38
-0.75
-0.87
-0.73
-0.44
-0.18
-0.02
0.05
0.12
0.19
0.23
0.13
-0.15
-0.46
-0.63
-0.54
-0.22
0.13
0.29
0.20
-0.06
-0.26
-0.26
-0.08
0.18
0.39
0.54
0.71
0.94
1.16
1.19
0.86
0.15
-0.73
-1.51
-1.91
-1.87
-1.50
-0.96
-0.45
-0.06
0.16
0.20
0.07
-0.18
-0.45
-0.63
-0.61
-0.38
-0.00
0.40
0.70
0.78
0.59
0.18
-0.32
-0.73
-0.83
-0.51
0.17
1.00
1.68
1.96
1.71
0.96
-0.11
-1.27
-2.30
-3.05
-3.44
-3.41
-3.02
-2.35
-1.59
-0.92
-0.50
-0.34
-0.29
-0.14
0.24
0.81
1.34
1.53
1.19
0.42
-0.47
-1.07
-1.05
-0.40
0.61
1.59
2.28
2.55
2.53
2.38
2.20
1.99
1.68
1.28
0.88
0.60
0.51
0.54
0.50
0.26
-0.23
-0.83
-1.32
-1.58
-1.66
-1.70
-1.83
-2.00
-2.07
-1.85
-1.35
-0.76
-0.41
-0.47
-0.88
-1.39
-1.66
-1.58
-1.17
-0.71
-0.41
-0.34
-0.44
-0.56
-0.55
-0.37
-0.04
0.40
0.91
1.43
1.86
2.08
1.96
1.50
0.82
0.21
-0.04
0.21
0.87
1.60
2.07
2.01
1.50
0.84
0.44
0.50
0.96
1.45
1.59
1.17
0.33
-0.58
-1.19
-1.33
-1.05
-0.60
-0.20
0.04
0.18
0.32
0.53
0.78
0.97
0.98
0.80
0.53
0.29
0.14
0.04
-0.15
-0.52
-1.10
-1.71
-2.11
-2.06
-1.51
-0.60
0.36
1.06
1.33
1.21
0.92
0.62
0.40
0.20
-0.05
-0.35
-0.55
-0.42
0.18
1.19
2.25
2.90
2.87
2.13
1.00
-0.06
-0.68
-0.79
-0.56
-0.29
-0.19
-0.26
-0.37
-0.40
-0.31
-0.24
-0.34
-0.64
-1.08
-1.45
-1.60
-1.57
-1.50
-1.60
-1.94
-2.36
-2.59
-2.38
-1.66
-0.64
0.36
1.05
1.33
1.31
1.20
1.17
1.25
1.36
1.39
1.33
1.22
1.15
1.15
1.19
1.21
1.16
1.04
0.86
0.60
0.26
-0.16
-0.61
-1.00
-1.26
-1.39
-1.45
-1.51
-1.61
-1.69
-1.65
-1.42
-1.04
-0.59
-0.23
-0.06
-0.17
-0.57
-1.16
-1.76
-2.13
-2.08
-1.53
-0.64
0.30
1.01
1.35
1.41
1.41
1.53
1.85
2.25
2.58
2.76
2.76
2.57
2.18
1.58
0.77
-0.11
-0.85
-1.28
-1.36
-1.21
-1.04
-0.93
-0.91
-0.85
-0.67
-0.40
-0.15
-0.05
-0.15
-0.39
-0.62
-0.72
-0.68
-0.58
-0.52
-0.56
-0.67
-0.78
-0.82
-0.75
-0.59
-0.37
-0.10
0.19
0.47
0.73
0.85
0.69
0.21
-0.55
-1.38
-1.98
-2.12
-1.72
-0.97
-0.20
0.26
0.27
-0.12
-0.63
-0.99
-1.04
-0.85
-0.58
-0.40
-0.36
-0.32
-0.15
0.21
0.66
1.05
1.22
1.13
0.85
0.51
0.21
-0.00
-0.10
-0.09
0.03
0.25
0.52
0.75
0.81
0.64
0.27
-0.18
-0.54
-0.69
-0.58
-0.27
0.09
0.34
0.37
0.16
-0.18
-0.49
-0.64
-0.65
-0.63
-0.73
-0.99
-1.31
-1.50
-1.39
-0.98
-0.40
0.11
0.41
0.44
0.32
0.18
0.11
0.11
0.11
0.07
-0.06
-0.22
-0.38
-0.55
-0.75
-0.96
-1.06
-0.87
-0.22
0.83
2.03
3.02
3.46
3.27
2.65
2.02
1.80
2.20
3.20
4.55
5.96
7.19
8.09
8.54
8.44
7.68
6.22
4.22
1.98
-0.07
-1.54
-2.26
-2.30
-1.91
-1.40
-0.97
-0.69
-0.51
-0.40
-0.41
-0.64
-1.18
-1.97
-2.86
-3.63
-4.09
-4.22
-4.07
-3.76
-3.38
-2.90
-2.30
-1.63
-1.01
-0.68
-0.83
-1.46
-2.31
-2.93
-2.85
-1.78
0.27
3.03
6.05
8.89
11.28
13.09
14.27
14.82
14.70
13.91
12.50
10.61
8.42
6.15
4.03
2.23
0.84
-0.16
-0.91
-1.61
-2.41
-3.36
-4.36
-5.28
-6.00
-6.51
-6.85
-7.04
-7.06
-6.82
-6.29
-5.53
-4.70
-3.97
-3.46
-3.15
-2.92
-2.68
-2.39
-2.12
-1.95
-1.93
-2.02
-2.17
-2.34
-2.51
-2.64
-2.66
-2.48
-2.05
-1.41
-0.69
-0.05
0.42
0.70
0.90
1.06
1.21
1.29
1.22
0.96
0.56
0.12
-0.25
-0.45
-0.45
-0.24
0.07
0.33
0.44
0.33
0.11
-0.09
-0.15
-0.11
-0.13
-0.43
-1.05
-1.82
-2.39
-2.46
-1.97
-1.12
-0.32
0.08
-0.05
-0.61
-1.30
-1.86
-2.13
-2.14
-1.98
-1.83
-1.80
-1.99
-2.38
-2.86
-3.30
-3.56
-3.61
-3.46
-3.22
-2.95
-2.69
-2.46
-2.25
-2.11
-2.05
-2.08
-2.16
-2.22
-2.22
-2.14
-2.03
-1.96
-1.97
-2.05
-2.13
-2.20
-2.27
-2.39
-2.62
-2.96
-3.31
-3.51
-3.44
-3.05
-2.43
-1.81
-1.45
-1.58
-2.21
-3.19
-4.18
-4.85
-4.98
-4.52
-3.65
-2.66
-1.88
-1.52
-1.65
-2.13
-2.70
-3.03
-2.83
-2.04
-0.80
0.51
1.51
1.99
1.97
1.75
1.64
1.83
2.20
2.56
2.64
2.38
1.90
1.49
1.39
1.70
2.33
3.05
3.58
3.71
3.38
2.69
1.84
1.09
0.61
0.40
0.34
0.29
0.17
0.10
0.25
0.75
1.55
2.39
2.97
3.09
2.75
2.20
1.74
1.58
1.72
2.03
2.36
2.58
2.71
2.80
2.82
2.77
2.60
2.39
2.30
2.52
3.12
4.01
4.90
5.45
5.38
4.63
3.39
2.02
0.88
0.19
-0.11
-0.23
-0.49
-1.06
-1.96
-2.99
-3.96
-4.71
-5.24
-5.63
-5.90
-6.03
-5.90
-5.47
-4.81
-4.11
-3.60
-3.37
-3.36
-3.41
-3.38
-3.22
-2.99
-2.78
-2.63
-2.48
-2.20
-1.72
-1.01
-0.19
0.56
1.15
1.52
1.69
1.77
1.84
1.93
2.00
2.02
2.01
2.08
2.33
2.76
3.24
3.55
3.44
2.84
1.87
0.83
-0.01
-0.51
-0.68
-0.66
-0.55
-0.38
-0.09
0.39
0.97
1.49
1.72
1.56
1.08
0.52
0.15
0.13
0.41
0.84
1.23
1.47
1.60
1.71
1.93
2.32
2.82
3.26
3.47
3.36
2.90
2.21
1.44
0.78
0.28
-0.04
-0.22
-0.29
-0.26
-0.15
0.00
0.15
0.25
0.26
0.17
0.07
0.02
0.07
0.22
0.39
0.45
0.33
-0.03
-0.58
-1.22
-1.80
-2.22
-2.42
-2.41
-2.17
-1.63
-0.75
0.47
1.83
3.01
3.65
3.57
2.87
1.86
0.95
0.35
0.10
0.08
0.19
0.42
0.83
1.44
2.18
2.86
3.29
3.37
3.17
2.77
2.31
1.87
1.57
1.51
1.77
2.30
2.86
3.17
3.01
2.37
1.48
0.68
0.24
0.28
0.69
1.22
1.59
1.57
1.05
0.11
-1.08
-2.24
-3.10
-3.54
-3.56
-3.33
-2.96
-2.54
-2.05
-1.44
-0.78
-0.18
0.17
0.19
-0.11
-0.62
-1.18
-1.63
-1.88
-1.88
-1.65
-1.27
-0.87
-0.59
-0.46
-0.44
-0.38
-0.16
0.23
0.67
1.01
1.18
1.19
1.14
1.11
1.08
1.02
0.86
0.61
0.36
0.21
0.22
0.39
0.62
0.82
0.90
0.81
0.55
0.18
-0.20
-0.48
-0.61
-0.65
-0.76
-1.07
-1.55
-2.01
-2.17
-1.87
-1.21
-0.47
-0.03
-0.06
-0.45
-0.85
-0.87
-0.35
0.58
1.59
2.35
2.68
2.59
2.23
1.74
1.18
0.54
-0.12
-0.70
-1.08
-1.16
-0.94
-0.50
0.00
0.45
0.74
0.82
0.66
0.27
-0.27
-0.84
-1.27
-1.50
-1.50
-1.35
-1.10
-0.82
-0.55
-0.33
-0.17
-0.09
-0.05
-0.01
0.04
0.00
-0.24
-0.78
-1.55
-2.38
-3.03
-3.32
-3.25
-2.99
-2.74
-2.65
-2.69
-2.77
-2.74
-2.56
-2.30
-2.03
-1.78
-1.54
-1.23
-0.86
-0.51
-0.26
-0.15
-0.10
0.09
0.58
1.42
2.44
3.35
3.86
3.85
3.43
2.77
2.08
1.45
0.86
0.25
-0.39
-0.96
-1.35
-1.47
-1.36
-1.09
-0.81
-0.59
-0.40
-0.18
0.09
0.38
0.59
0.58
0.29
-0.23
-0.82
-1.30
-1.58
-1.71
-1.81
-2.01
-2.33
-2.67
-2.91
-2.93
-2.78
-2.60
-2.56
-2.73
-3.01
-3.15
-2.88
-2.09
-0.94
0.23
1.01
1.23
1.01
0.68
0.67
1.20
2.14
3.11
3.71
3.72
3.17
2.42
1.83
1.70
2.12
2.98
4.10
5.21
6.09
6.62
6.82
6.88
7.10
7.77
9.01
10.72
12.67
14.54
16.10
17.27
18.11
18.77
19.47
20.48
22.08
24.40
27.34
30.56
33.56
35.93
37.48
38.27
38.42
37.97
36.80
34.73
31.68
27.71
22.95
17.48
11.19
3.85
-4.72
-14.42
-24.74
-34.81
-43.61
-50.39
-54.89
-57.54
-59.30
-61.39
-64.76
-69.79
-76.14
-82.89
-88.95
-93.43
-95.77
-95.76
-93.32
-88.35
-80.83
-71.10
-60.11
-49.46
-41.05
-36.49
-36.50
-40.70
-47.68
-55.52
-62.29
-66.42
-66.87
-63.19
-55.58
-44.97
-32.89
-21.11
-11.11
-3.71
1.11
3.85
5.05
4.89
3.09
-0.72
-6.77
-14.70
-23.59
-32.04
-38.56
-41.96
-41.70
-38.15
-32.51
-26.42
-21.27
-17.62
-14.83
-11.31
-5.00
5.85
22.05
43.25
67.83
93.40
117.18
136.71
150.37
157.75
159.61
157.51
153.27
148.32
143.49
138.90
134.32
129.50
124.40
119.30
114.52
110.29
106.52
102.83
98.76
94.09
89.00
84.01
79.62
75.95
72.62
68.84
63.93
57.66
50.41
43.02
36.44
31.45
28.46
27.51
28.27
30.13
32.16
33.34
32.98
31.02
28.14
25.41
23.69
23.12
23.12
22.75
21.36
18.89
15.66
11.90
7.34
1.39
-6.35
-15.45
-24.42
-31.08
-33.48
-30.76
-23.62
-14.13
-5.09
0.79
1.59
-3.35
-13.38
-26.73
-41.10
-54.25
-64.62
-71.58
-75.32
-76.55
-76.10
-74.65
-72.77
-70.97
-69.78
-69.63
-70.62
-72.38
-74.12
-74.90
-74.06
-71.53
-67.79
-63.56
-59.45
-55.64
-52.04
-48.53
-45.23
-42.48
-40.67
-39.97
-40.16
-40.80
-41.44
-41.80
-41.87
-41.65
-41.11
-40.15
-38.78
-37.34
-36.55
-37.22
-39.90
-44.52
-50.37
-56.39
-61.60
-65.53
-68.37
-70.85
-73.79
-77.76
-82.83
-88.43
-93.48
-96.63
-96.69
-93.08
-86.24
-77.62
-69.35
-63.53
-61.42
-63.13
-67.76
-73.90
-80.40
-86.69
-92.86
-99.41
-107.08
-116.68
-128.92
-144.03
-161.30
-178.72
-193.36
-202.13
-202.89
-195.22
-180.53
-161.23
-139.65
-117.09
-93.40
-67.27
-36.98
-1.22
40.31
86.72
136.05
185.73
232.90
274.67
308.21
330.89
340.73
337.12
321.62
298.03
271.66
247.67
229.32
216.98
208.42
200.20
189.41
174.83
156.96
137.16
116.66
96.05
75.50
55.45
37.04
21.85
11.03
4.42
0.32
-3.89
-10.33
-19.31
-28.71
-34.73
-33.46
-22.62
-2.72
23.14
50.22
73.63
89.36
94.86
88.97
71.90
45.27
12.25
-22.61
-54.11
-77.76
-91.00
-93.86
-88.64
-78.68
-67.00
-55.49
-44.88
-35.25
-26.58
-18.96
-12.38
-6.56
-0.90
5.13
11.60
18.00
23.40
26.97
28.48
28.31
27.30
26.25
25.70
25.77
26.26
26.84
27.12
26.69
25.24
22.57
18.75
14.06
9.00
4.08
-0.31
-3.96
-6.79
-8.74
-9.72
-9.68
-8.69
-7.05
-5.31
-4.05
-3.70
-4.36
-5.79
-7.50
-8.99
-10.01
-10.58
-10.89
-11.14
-11.31
-11.19
-10.54
-9.30
-7.69
-6.14
-5.05
-4.54
-4.40
-4.26
-3.83
-3.10
-2.29
-1.66
-1.30
-1.05
-0.63
0.18
1.32
2.50
3.33
3.49
2.95
1.92
0.84
0.15
0.19
1.15
3.02
5.71
9.07
12.97
17.17
21.31
24.96
27.69
29.44
30.48
31.40
32.64
34.18
35.28
34.82
31.78
25.82
17.53
8.22
-0.65
-8.06
-13.65
-17.70
-20.67
-22.94
-24.65
-25.72
-26.11
-25.80
-24.92
-23.61
-21.99
-20.17
-18.25
-16.27
-14.27
-12.27
-10.29
-8.40
-6.74
-5.53
-4.88
-4.79
-5.02
-5.23
-5.07
-4.39
-3.31
-2.18
-1.48
-1.56
-2.43
-3.78
-5.03
-5.67
-5.45
-4.50
-3.23
-2.08
-1.34
-1.06
-1.18
-1.61
-2.32
-3.22
-4.12
-4.73
-4.76
-4.11
-2.92
-1.56
-0.40
0.31
0.54
0.44
0.20
-0.02
-0.16
-0.16
-0.03
0.22
0.52
0.72
0.68
0.28
-0.47
-1.46
-2.47
-3.28
-3.82
-4.17
-4.58
-5.46
-7.22
-10.22
-14.57
-20.07
-26.19
-32.16
-37.27
-41.15
-43.89
-45.85
-47.36
-48.36
-48.31
-46.53
-42.61
-36.83
-30.14
-23.75
-18.65
-15.18
-13.11
-11.88
-10.96
-10.04
-8.96
-7.62
-5.92
-3.74
-1.14
1.71
4.54
7.22
9.78
12.56
16.02
20.60
26.53
33.58
41.09
48.05
53.40
56.44
57.14
56.10
54.35
52.83
51.98
51.63
51.16
49.95
47.66
44.32
40.16
35.39
30.06
24.02
17.22
9.84
2.45
-4.12
-9.07
-11.81
-12.28
-10.87
-8.29
-5.31
-2.49
-0.11
1.81
3.31
4.34
4.70
4.18
2.74
0.69
-1.45
-3.08
-3.87
-3.82
-3.30
-2.83
-2.80
-3.42
-4.63
-6.30
-8.25
-10.28
-12.13
-13.44
-13.84
-13.07
-11.12
-8.25
-4.81
-0.99
3.17
7.70
12.35
16.37
18.66
18.11
14.26
7.54
-0.79
-9.19
-16.40
-21.88
-25.70
-28.18
-29.55
-29.76
-28.69
-26.46
-23.54
-20.60
-18.24
-16.62
-15.55
-14.54
-13.22
-11.41
-9.22
-6.90
-4.72
-2.93
-1.70
-1.19
-1.56
-2.96
-5.48
-9.12
-13.64
-18.63
-23.48
-27.56
-30.41
-31.93
-32.28
-31.75
-30.55
-28.65
-25.98
-22.56
-18.71
-14.95
-11.77
-9.33
-7.40
-5.60
-3.60
-1.35
0.94
3.01
4.76
6.25
7.62
8.93
10.13
11.07
11.63
11.88
12.01
12.25
12.71
13.34
13.99
14.56
15.07
15.62
16.31
17.05
17.60
17.66
17.05
15.89
14.52
13.35
12.69
12.55
12.75
12.99
13.06
12.88
12.38
11.51
10.24
8.63
6.91
5.43
4.54
4.39
4.85
5.60
6.31
6.82
7.20
7.66
8.38
9.37
10.52
11.64
12.61
13.49
14.51
15.93
17.91
20.34
22.91
25.22
27.09
28.72
30.69
33.66
38.05
43.74
50.07
56.12
61.24
65.27
68.63
72.07
76.26
81.46
87.30
92.81
96.58
97.24
94.00
86.97
76.98
65.35
53.00
39.98
25.24
6.96
-17.10
-48.99
-90.00
-139.66
-194.79
-249.18
-294.41
-322.11
-326.88
-308.47
-271.90
-225.58
-178.08
-135.47
-100.33
-72.56
-51.07
-35.13
-24.53
-18.97
-17.26
-17.29
-16.72
-13.92
-8.63
-1.81
4.76
9.55
11.87
12.04
11.19
10.66
11.41
13.72
17.10
20.66
23.54
25.24
25.84
25.87
25.98
26.65
27.91
29.35
30.39
30.54
29.67
28.03
26.12
24.43
23.27
22.70
22.60
22.72
22.79
22.54
21.77
20.42
18.62
16.70
15.07
14.02
13.58
13.53
13.50
13.18
12.45
11.42
10.28
9.18
8.16
7.11
5.89
4.49
3.06
1.86
1.19
1.15
1.60
2.29
2.89
3.21
3.23
3.03
2.76
2.50
2.35
2.38
2.68
3.23
3.94
4.58
4.92
4.85
4.50
4.16
4.11
4.48
5.14
5.80
6.18
6.17
5.84
5.41
5.01
4.72
4.52
4.39
4.31
4.30
4.33
4.34
4.19
3.82
3.21
2.41
1.53
0.62
-0.30
-1.19
-1.90
-2.28
-2.20
-1.66
-0.88
-0.17
0.21
0.14
-0.28
-0.90
-1.54
-2.07
-2.38
-2.37
-1.95
-1.18
-0.28
0.44
0.69
0.43
-0.15
-0.65
-0.78
-0.44
0.17
0.75
1.03
0.98
0.72
0.46
0.35
0.41
0.58
0.73
0.78
0.70
0.55
0.44
0.43
0.56
0.70
0.74
0.58
0.27
0.02
0.02
0.35
0.94
1.55
1.99
2.21
2.33
2.48
2.75
3.10
3.40
3.55
3.54
3.45
3.34
3.21
3.06
2.89
2.72
2.63
2.65
2.73
2.76
2.66
2.42
2.08
1.78
1.59
1.60
1.78
2.13
2.59
3.07
3.43
3.57
3.44
3.03
2.40
1.61
0.73
-0.22
-1.15
-1.98
-2.65
-3.11
-3.34
-3.40
-3.26
-2.91
-2.33
-1.57
-0.76
-0.12
0.19
0.16
-0.03
-0.15
-0.03
0.35
0.88
1.38
1.70
1.78
1.64
1.33
0.94
0.59
0.41
0.53
1.00
1.70
2.36
2.70
2.48
1.70
0.55
-0.57
-1.30
-1.42
-0.93
-0.08
0.83
1.51
1.83
1.80
1.53
1.12
0.59
-0.10
-0.98
-1.98
-2.94
-3.65
-3.93
-3.79
-3.35
-2.80
-2.26
-1.78
-1.28
-0.70
-0.05
0.57
1.07
1.40
1.60
1.76
1.91
1.99
1.88
1.49
0.86
0.18
-0.24
-0.16
0.53
1.71
3.05
4.17
4.74
4.60
3.89
2.97
2.24
1.96
2.11
2.42
2.55
2.31
1.73
1.05
0.52
0.27
0.24
0.22
0.08
-0.30
-0.90
-1.66
-2.55
-3.53
-4.53
-5.41
-5.97
-6.05
-5.57
-4.60
-3.36
-2.11
-1.06
-0.34
0.10
0.38
0.67
1.06
1.57
2.10
2.55
2.89
3.16
3.40
3.63
3.77
3.67
3.26
2.63
2.00
1.67
1.83
2.39
3.10
3.61
3.68
3.34
2.77
2.25
1.93
1.87
1.95
2.00
1.85
1.38
0.60
-0.39
-1.37
-2.13
-2.56
-2.72
-2.79
-2.95
-3.25
-3.56
-3.61
-3.23
-2.38
-1.28
-0.21
0.57
0.92
0.85
0.44
-0.18
-0.91
-1.59
-2.13
-2.44
-2.53
-2.42
-2.20
-1.93
-1.66
-1.44
-1.31
-1.30
-1.38
-1.53
-1.75
-2.07
-2.50
-2.97
-3.28
-3.12
-2.24
-0.64
1.39
3.33
4.68
5.12
4.74
3.82
2.74
1.72
0.87
0.20
-0.29
-0.54
-0.46
-0.01
0.76
1.75
2.77
3.62
4.18
4.43
4.41
4.21
3.92
3.60
3.25
2.87
2.47
2.04
1.60
1.16
0.76
0.44
0.26
0.31
0.60
1.03
1.40
1.47
1.08
0.26
-0.75
-1.60
-1.98
-1.78
-1.13
-0.34
0.24
0.37
0.05
-0.62
-1.44
-2.26
-3.02
-3.71
-4.29
-4.63
-4.63
-4.18
-3.34
-2.29
-1.28
-0.52
-0.04
0.20
0.32
0.42
0.53
0.67
0.77
0.90
1.07
1.32
1.64
1.92
2.05
1.97
1.77
1.59
1.68
2.13
2.85
3.59
4.08
4.17
3.91
3.51
3.17
2.99
2.89
2.69
2.25
1.56
0.66
-0.36
-1.43
-2.53
-3.57
-4.42
-4.89
-4.89
-4.49
-3.88
-3.32
-2.94
-2.72
-2.49
-2.10
-1.51
-0.82
-0.24
0.12
0.26
0.32
0.52
0.96
1.60
2.27
2.70
2.75
2.43
1.91
1.45
1.20
1.16
1.18
1.10
0.86
0.59
0.48
0.71
1.26
1.90
2.34
2.40
2.08
1.52
0.83
0.03
-0.95
-2.12
-3.30
-4.17
-4.45
-4.05
-3.20
-2.24
-1.53
-1.14
-0.97
-0.83
-0.60
-0.29
0.00
0.22
0.40
0.61
0.91
1.29
1.74
2.27
2.85
3.36
3.57
3.26
2.36
1.07
-0.19
-0.99
-1.10
-0.63
0.08
0.65
0.87
0.71
0.32
-0.10
-0.44
-0.63
-0.70
-0.63
-0.46
-0.19
0.14
0.47
0.71
0.75
0.47
-0.19
-1.16
-2.25
-3.20
-3.78
-3.89
-3.62
-3.08
-2.42
-1.70
-0.98
-0.26
0.38
0.88
1.20
1.34
1.34
1.21
1.00
0.77
0.61
0.62
0.85
1.32
1.90
2.40
2.65
2.57
2.17
1.57
0.95
0.44
0.16
0.14
0.37
0.81
1.40
2.03
2.58
2.89
2.85
2.47
1.84
1.14
0.56
0.16
-0.17
-0.60
-1.28
-2.22
-3.23
-4.03
-4.34
-4.07
-3.32
-2.32
-1.33
-0.56
-0.12
0.00
-0.09
-0.29
-0.41
-0.38
-0.13
0.29
0.76
1.20
1.57
1.88
2.15
2.35
2.38
2.10
1.48
0.66
-0.04
-0.26
0.16
1.11
2.20
2.94
2.96
2.28
1.21
0.23
-0.30
-0.30
0.03
0.35
0.40
0.12
-0.37
-0.91
-1.36
-1.75
-2.17
-2.70
-3.38
-4.13
-4.86
-5.42
-5.67
-5.52
-4.95
-4.02
-2.90
-1.77
-0.79
-0.04
0.47
0.83
1.13
1.46
1.87
2.37
2.89
3.37
3.66
3.67
3.41
2.92
2.41
2.10
2.13
2.50
3.08
3.64
3.91
3.70
3.04
2.09
1.21
0.72
0.80
1.37
2.16
2.82
3.12
2.98
2.57
2.03
1.51
0.95
0.18
-0.93
-2.39
-4.02
-5.56
-6.76
-7.44
-7.58
-7.27
-6.64
-5.89
-5.18
-4.60
-4.21
-3.94
-3.67
-3.33
-2.87
-2.34
-1.78
-1.25
-0.82
-0.53
-0.38
-0.36
-0.38
-0.31
-0.05
0.46
1.17
1.95
2.69
3.28
3.66
3.86
3.90
3.84
3.73
3.60
3.44
3.23
3.00
2.75
2.57
2.55
2.71
2.94
3.01
2.74
2.12
1.38
0.84
0.79
1.26
1.98
2.53
2.52
1.75
0.27
-1.63
-3.60
-5.29
-6.44
-6.92
-6.72
-6.00
-5.05
-4.12
-3.38
-2.83
-2.33
-1.74
-1.03
-0.26
0.46
1.05
1.52
1.93
2.28
2.49
2.44
2.03
1.32
0.53
-0.02
-0.09
0.35
1.16
2.08
2.83
3.31
3.45
3.33
2.96
2.39
1.66
0.90
0.30
0.03
0.21
0.74
1.36
1.77
1.76
1.34
0.72
0.12
-0.30
-0.62
-1.04
-1.75
-2.75
-3.88
-4.80
-5.26
-5.16
-4.59
-3.78
-2.98
-2.34
-1.85
-1.49
-1.19
-0.95
-0.78
-0.67
-0.55
-0.32
0.06
0.55
1.02
1.37
1.59
1.73
1.88
2.08
2.22
2.16
1.83
1.28
0.75
0.47
0.59
1.09
1.79
2.46
2.93
3.16
3.19
3.13
3.11
3.22
3.50
3.89
4.27
4.43
4.24
3.58
2.46
1.01
-0.61
-2.14
-3.37
-4.12
-4.39
-4.33
-4.22
-4.25
-4.46
-4.65
-4.58
-4.10
-3.30
-2.53
-2.09
-2.10
-2.42
-2.71
-2.71
-2.35
-1.75
-1.11
-0.62
-0.24
0.11
0.56
1.16
1.87
2.59
3.19
3.64
3.93
4.17
4.46
4.79
5.07
5.09
4.72
3.96
3.07
2.36
2.00
1.94
1.95
1.76
1.31
0.76
0.33
0.09
-0.11
-0.54
-1.32
-2.32
-3.16
-3.52
-3.33
-2.81
-2.34
-2.18
-2.27
-2.34
-2.07
-1.36
-0.40
0.48
0.94
0.93
0.64
0.39
0.38
0.65
1.02
1.23
1.14
0.80
0.40
0.14
0.07
0.13
0.17
0.08
-0.09
-0.16
0.03
0.54
1.25
1.90
2.27
2.23
1.81
1.19
0.60
0.21
0.11
0.26
0.52
0.65
0.46
-0.14
-1.07
-2.05
-2.83
-3.23
-3.25
-3.05
-2.84
-2.75
-2.70
-2.58
-2.25
-1.74
-1.15
-0.63
-0.30
-0.17
-0.18
-0.27
-0.39
-0.50
-0.58
-0.56
-0.42
-0.22
-0.03
0.06
0.00
-0.13
-0.22
-0.14
0.13
0.58
1.11
1.63
2.05
2.33
2.44
2.37
2.14
1.81
1.44
1.13
0.94
0.91
1.01
1.15
1.22
1.13
0.84
0.33
-0.41
-1.41
-2.68
-4.10
-5.42
-6.33
-6.59
-6.14
-5.15
-3.95
-2.82
-1.92
-1.29
-0.97
-0.96
-1.30
-1.92
-2.61
-3.07
-3.06
-2.57
-1.82
-1.12
-0.69
-0.57
-0.58
-0.49
-0.13
0.46
1.09
1.53
1.66
1.48
1.19
1.03
1.15
1.57
2.09
2.45
2.47
2.15
1.67
1.26
1.12
1.24
1.46
1.60
1.52
1.17
0.56
-0.22
-1.11
-1.99
-2.72
-3.14
-3.16
-2.77
-2.04
-1.11
-0.11
0.77
1.36
1.52
1.21
0.55
-0.21
-0.79
-0.94
-0.59
0.18
1.21
2.28
3.16
3.65
3.62
3.06
2.17
1.26
0.60
0.26
0.12
-0.02
-0.30
-0.65
-0.91
-0.94
-0.75
-0.49
-0.35
-0.38
-0.52
-0.66
-0.72
-0.73
-0.79
-0.91
-1.10
-1.29
-1.43
-1.52
-1.60
-1.66
-1.61
-1.33
-0.73
0.14
1.12
1.92
2.30
2.10
1.36
0.28
-0.83
-1.67
-2.10
-2.10
-1.82
-1.44
-1.14
-0.93
-0.82
-0.76
-0.76
-0.83
-0.98
-1.18
-1.33
-1.31
-1.02
-0.45
0.31
1.11
1.74
2.06
2.01
1.65
1.09
0.51
0.03
-0.25
-0.30
-0.16
0.02
0.08
-0.13
-0.61
-1.23
-1.75
-1.96
-1.81
-1.40
-0.92
-0.50
-0.11
0.39
1.11
2.04
2.95
3.55
3.59
3.03
2.04
0.92
-0.02
-0.56
-0.65
-0.38
0.06
0.50
0.81
0.96
1.07
1.26
1.59
1.99
2.33
2.45
2.31
2.00
1.66
1.40
1.24
1.07
0.83
0.50
0.12
-0.18
-0.33
-0.29
-0.05
0.31
0.73
1.05
1.07
0.62
-0.40
-1.83
-3.37
-4.61
-5.26
-5.24
-4.73
-4.00
-3.33
-2.82
-2.41
-1.96
-1.36
-0.63
0.11
0.68
0.94
0.91
0.73
0.64
0.80
1.26
1.87
2.41
2.69
2.68
2.49
2.34
2.34
2.46
2.48
2.21
1.57
0.66
-0.28
-0.98
-1.30
-1.29
-1.05
-0.70
-0.28
0.24
0.84
1.48
2.00
2.23
2.06
1.55
0.84
0.17
-0.36
-0.74
-1.12
-1.66
-2.44
-3.36
-4.21
-4.77
-4.93
-4.74
-4.32
-3.74
-3.00
-2.06
-0.91
0.29
1.27
1.77
1.73
1.31
0.78
0.44
0.40
0.62
0.99
1.37
1.68
1.91
2.07
2.19
2.29
2.38
2.46
2.50
2.48
2.40
2.30
2.25
2.27
2.27
2.10
1.61
0.80
-0.13
-0.88
-1.20
-1.07
-0.64
-0.21
-0.01
-0.15
-0.66
-1.48
-2.55
-3.75
-4.86
-5.62
-5.79
-5.35
-4.46
-3.41
-2.45
-1.69
-1.05
-0.43
0.18
0.70
0.99
1.00
0.78
0.48
0.27
0.22
0.34
0.58
0.87
1.17
1.43
1.63
1.76
1.84
1.89
1.93
1.93
1.83
1.62
1.38
1.22
1.26
1.53
1.96
2.39
2.69
2.82
2.79
2.67
2.47
2.23
1.94
1.61
1.21
0.72
0.05
-0.84
-1.89
-2.93
-3.70
-4.01
-3.81
-3.29
-2.74
-2.40
-2.36
-2.53
-2.71
-2.72
-2.52
-2.18
-1.85
-1.64
-1.58
-1.60
-1.56
-1.37
-1.00
-0.52
-0.04
0.35
0.55
0.53
0.30
-0.12
-0.59
-0.95
-0.98
-0.55
0.27
1.25
2.05
2.40
2.22
1.67
1.02
0.50
0.22
0.17
0.30
0.60
1.06
1.67
2.26
2.61
2.46
1.72
0.50
-0.92
-2.22
-3.16
-3.63
-3.66
-3.37
-2.87
-2.31
-1.84
-1.59
-1.58
-1.71
-1.79
-1.62
-1.14
-0.39
0.42
1.11
1.61
1.89
1.98
1.90
1.68
1.35
1.02
0.83
0.85
1.07
1.41
1.72
1.89
1.89
1.75
1.47
1.07
0.61
0.19
-0.04
-0.03
0.23
0.59
0.92
1.16
1.37
1.65
2.02
2.40
2.60
2.47
2.00
1.33
0.63
0.01
-0.51
-1.02
-1.60
-2.21
-2.74
-3.07
-3.06
-2.69
-1.97
-0.99
0.07
1.01
1.64
1.85
1.63
1.12
0.53
0.03
-0.27
-0.34
-0.21
0.08
0.41
0.67
0.73
0.56
0.25
-0.01
-0.03
0.27
0.82
1.38
1.73
1.74
1.43
0.90
0.30
-0.25
-0.64
-0.80
-0.64
-0.14
0.64
1.52
2.24
2.58
2.41
1.72
0.62
-0.71
-2.03
-3.18
-4.02
-4.52
-4.73
-4.69
-4.48
-4.12
-3.59
-2.86
-2.01
-1.18
-0.55
-0.26
-0.38
-0.83
-1.43
-1.97
-2.30
-2.33
-2.06
-1.53
-0.81
-0.00
0.83
1.59
2.23
2.68
2.93
3.00
2.92
2.75
2.53
2.25
1.90
1.51
1.11
0.80
0.65
0.73
1.04
1.49
1.96
2.36
2.58
2.61
2.41
1.98
1.23
0.11
-1.39
-3.11
-4.75
-5.89
-6.19
-5.52
-4.10
-2.36
-0.79
0.33
0.95
1.22
1.34
1.46
1.57
1.64
1.63
1.51
1.32
1.08
0.85
0.67
0.58
0.62
0.78
0.99
1.19
1.35
1.51
1.70
1.95
2.20
2.34
2.32
2.12
1.81
1.46
1.11
0.73
0.30
-0.15
-0.48
-0.52
-0.17
0.50
1.24
1.67
1.48
0.62
-0.64
-1.87
-2.74
-3.13
-3.20
-3.20
-3.27
-3.32
-3.15
-2.58
-1.69
-0.80
-0.28
-0.33
-0.83
-1.48
-1.91
-1.98
-1.74
-1.40
-1.13
-1.02
-1.02
-1.06
-1.06
-0.93
-0.63
-0.13
0.52
1.17
1.64
1.80
1.67
1.37
1.07
0.90
0.90
1.06
1.38
1.86
2.49
3.15
3.68
3.83
3.46
2.54
1.25
-0.22
-1.69
-3.06
-4.19
-4.95
-5.11
-4.52
-3.23
-1.50
0.19
1.42
1.92
1.66
0.86
-0.18
-1.14
-1.72
-1.76
-1.24
-0.32
0.66
1.37
1.62
1.43
1.02
0.61
0.30
0.05
-0.23
-0.52
-0.67
-0.54
-0.14
0.33
0.55
0.37
-0.15
-0.63
-0.68
-0.07
1.01
2.11
2.69
2.46
1.43
-0.04
-1.46
-2.45
-2.88
-2.94
-2.92
-3.01
-3.19
-3.23
-2.85
-1.92
-0.62
0.71
1.68
2.13
2.16
2.03
2.00
2.12
2.25
2.19
1.87
1.40
0.98
0.81
0.90
1.13
1.30
1.33
1.28
1.31
1.54
1.99
2.48
2.76
2.66
2.14
1.34
0.48
-0.24
-0.75
-1.08
-1.35
-1.66
-2.05
-2.51
-3.02
-3.53
-4.01
-4.39
-4.63
-4.66
-4.46
-4.06
-3.52
-2.92
-2.33
-1.74
-1.10
-0.39
0.36
1.05
1.55
1.79
1.75
1.50
1.19
0.90
0.68
0.53
0.44
0.46
0.65
1.04
1.55
2.00
2.16
1.92
1.32
0.58
-0.03
-0.35
-0.34
-0.11
0.18
0.43
0.60
0.75
0.93
1.19
1.52
1.82
1.95
1.76
1.17
0.24
-0.80
-1.64
-2.06
-2.07
-1.89
-1.78
-1.90
-2.17
-2.31
-2.06
-1.33
-0.29
0.77
1.60
2.06
2.16
2.00
1.70
1.32
1.00
0.83
0.92
1.26
1.74
2.15
2.37
2.41
2.35
2.29
2.26
2.20
1.99
1.64
1.26
1.06
1.20
1.67
2.25
2.65
2.61
2.03
1.06
-0.03
-1.00
-1.74
-2.28
-2.74
-3.17
-3.54
-3.72
-3.67
-3.48
-3.38
-3.61
-4.17
-4.77
-5.02
-4.54
-3.31
-1.66
-0.10
0.92
1.21
0.92
0.35
-0.21
-0.63
-0.90
-1.11
-1.26
-1.34
-1.28
-1.07
-0.71
-0.23
0.33
0.91
1.42
1.79
1.95
1.93
1.81
1.76
1.92
2.34
2.95
3.52
3.82
3.61
2.83
1.60
0.19
-1.04
-1.81
-2.03
-1.85
-1.50
-1.23
-1.12
-1.10
-1.06
-0.88
-0.62
-0.36
-0.18
-0.05
0.10
0.38
0.75
1.09
1.24
1.06
0.57
-0.04
-0.53
-0.71
-0.51
-0.05
0.51
0.98
1.37
1.76
2.22
2.74
3.10
3.09
2.54
1.57
0.50
-0.26
-0.48
-0.18
0.37
0.82
0.98
0.83
0.56
0.36
0.29
0.27
0.06
-0.46
-1.30
-2.22
-2.90
-3.03
-2.54
-1.58
-0.47
0.48
1.10
1.39
1.46
1.43
1.30
1.05
0.69
0.30
0.01
-0.11
-0.10
-0.10
-0.23
-0.48
-0.75
-0.86
-0.73
-0.44
-0.11
0.14
0.29
0.41
0.57
0.77
0.93
0.96
0.84
0.65
0.48
0.39
0.34
0.22
-0.02
-0.47
-1.11
-1.92
-2.90
-3.98
-5.05
-5.91
-6.32
-6.12
-5.31
-4.05
-2.64
-1.38
-0.51
-0.12
-0.15
-0.39
-0.52
-0.34
0.24
1.05
1.83
2.31
2.42
2.29
2.23
2.42
2.92
3.55
4.01
4.07
3.68
2.94
2.10
1.38
0.94
0.81
0.91
1.10
1.22
1.18
0.96
0.67
0.45
0.42
0.62
0.95
1.27
1.40
1.26
0.83
0.18
-0.59
-1.35
-2.02
-2.52
-2.85
-3.03
-3.10
-3.09
-3.00
-2.81
-2.48
-2.02
-1.47
-0.95
-0.50
-0.16
0.12
0.45
0.87
1.37
1.85
2.17
2.24
2.11
1.87
1.68
1.63
1.70
1.82
1.91
1.92
1.84
1.64
1.30
0.79
0.14
-0.51
-0.97
-1.05
-0.69
-0.00
0.76
1.28
1.30
0.75
-0.27
-1.51
-2.67
-3.52
-3.96
-4.06
-3.98
-3.87
-3.79
-3.66
-3.36
-2.81
-2.04
-1.23
-0.59
-0.26
-0.21
-0.30
-0.36
-0.25
0.06
0.53
1.09
1.60
1.96
2.06
1.89
1.55
1.17
0.92
0.84
0.88
0.92
0.85
0.70
0.61
0.73
1.12
1.69
2.28
2.72
2.94
2.99
2.92
2.79
2.55
2.12
1.42
0.45
-0.68
-1.75
-2.53
-2.84
-2.67
-2.20
-1.63
-1.13
-0.76
-0.40
-0.00
0.41
0.66
0.52
-0.07
-0.95
-1.75
-2.15
-2.01
-1.47
-0.87
-0.50
-0.46
-0.71
-1.09
-1.47
-1.76
-1.84
-1.57
-0.87
0.28
1.65
2.89
3.68
3.86
3.54
3.00
2.50
2.21
2.18
2.30
2.44
2.44
2.15
1.46
0.36
-0.99
-2.33
-3.42
-4.10
-4.35
-4.26
-3.91
-3.34
-2.53
-1.57
-0.60
0.17
0.57
0.58
0.33
-0.01
-0.27
-0.36
-0.30
-0.16
0.02
0.17
0.27
0.29
0.19
-0.01
-0.26
-0.46
-0.54
-0.43
-0.21
0.04
0.24
0.40
0.60
0.93
1.41
1.92
2.29
2.38
2.19
1.85
1.56
1.45
1.53
1.69
1.73
1.47
0.80
-0.23
-1.49
-2.69
-3.54
-3.82
-3.49
-2.74
-1.81
-1.01
-0.46
-0.14
0.04
0.18
0.28
0.28
0.16
-0.06
-0.26
-0.31
-0.12
0.26
0.66
0.92
0.94
0.71
0.35
0.02
-0.16
-0.16
-0.03
0.15
0.36
0.64
1.03
1.55
2.13
2.59
2.76
2.52
1.92
1.14
0.44
0.06
0.13
0.55
1.10
1.50
1.54
1.16
0.44
-0.43
-1.25
-1.89
-2.22
-2.20
-1.82
-1.09
-0.13
0.85
1.65
2.06
1.97
1.39
0.46
-0.58
-1.51
-2.18
-2.51
-2.55
-2.37
-2.06
-1.66
-1.22
-0.77
-0.33
0.08
0.40
0.61
0.73
0.81
0.88
0.97
1.04
1.00
0.77
0.33
-0.23
-0.76
-1.07
-1.05
-0.72
-0.24
0.14
0.17
-0.28
-1.17
-2.31
-3.38
-4.03
-4.00
-3.22
-1.87
-0.32
1.00
1.76
1.84
1.41
0.77
0.20
-0.19
-0.44
-0.71
-1.08
-1.49
-1.74
-1.63
-1.13
-0.41
0.21
0.45
0.28
-0.06
-0.17
0.25
1.20
2.36
3.25
3.52
3.14
2.38
1.58
1.06
0.84
0.81
0.78
0.67
0.50
0.32
0.14
-0.10
-0.48
-1.04
-1.74
-2.43
-2.98
-3.29
-3.29
-3.02
-2.54
-1.97
-1.41
-0.92
-0.52
-0.15
0.26
0.71
1.12
1.35
1.29
0.91
0.34
-0.17
-0.40
-0.23
0.23
0.76
1.13
1.23
1.11
0.96
0.98
1.24
1.65
2.00
2.09
1.83
1.28
0.64
0.13
-0.09
0.03
0.39
0.88
1.32
1.53
1.42
0.94
0.18
-0.66
-1.29
-1.54
-1.34
-0.80
-0.20
0.20
0.26
-0.01
-0.47
-0.91
-1.22
-1.37
-1.40
-1.40
-1.38
-1.34
-1.26
-1.13
-0.94
-0.74
-0.54
-0.34
-0.16
0.00
0.13
0.22
0.28
0.38
0.57
0.87
1.30
1.75
2.10
2.20
1.97
1.43
0.76
0.18
-0.07
0.12
0.70
1.46
2.09
2.32
2.00
1.17
0.02
-1.15
-2.07
-2.55
-2.60
-2.39
-2.18
-2.12
-2.24
-2.35
-2.23
-1.72
-0.87
0.09
0.88
1.37
1.56
1.57
1.47
1.25
0.79
0.03
-0.84
-1.52
-1.64
-1.09
-0.06
0.99
1.63
1.68
1.29
0.82
0.56
0.55
0.61
0.50
0.13
-0.32
-0.56
-0.37
0.25
1.08
1.80
2.13
1.96
1.30
0.28
-0.92
-2.05
-2.85
-3.12
-2.83
-2.14
-1.32
-0.60
-0.11
0.18
0.37
0.50
0.51
0.37
0.10
-0.22
-0.43
-0.45
-0.32
-0.14
-0.01
0.05
0.17
0.46
0.98
1.69
2.42
2.96
3.17
3.02
2.59
2.06
1.62
1.37
1.32
1.33
1.25
1.00
0.68
0.41
0.29
0.23
0.02
-0.55
-1.55
-2.79
-3.94
-4.66
-4.84
-4.58
-4.07
-3.48
-2.84
-2.10
-1.26
-0.49
0.01
0.11
-0.12
-0.37
-0.34
0.09
0.72
1.23
1.32
0.99
0.49
0.17
0.20
0.52
0.88
1.08
1.07
1.01
1.07
1.27
1.46
1.43
1.03
0.33
-0.39
-0.85
-0.84
-0.33
0.47
1.33
1.95
2.17
1.91
1.22
0.22
-0.93
-2.06
-2.99
-3.60
-3.80
-3.56
-2.97
-2.17
-1.33
-0.58
0.04
0.57
1.04
1.41
1.60
1.51
1.15
0.68
0.34
0.28
0.54
0.98
1.43
1.79
2.04
2.21
2.34
2.34
2.14
1.71
1.09
0.42
-0.18
-0.65
-0.97
-1.14
-1.12
-0.83
-0.22
0.61
1.41
1.89
1.84
1.25
0.25
-0.92
-2.03
-2.92
-3.52
-3.76
-3.61
-3.12
-2.42
-1.73
-1.27
-1.14
-1.29
-1.50
-1.55
-1.30
-0.78
-0.14
0.46
0.88
1.08
1.08
1.00
0.92
0.96
1.17
1.54
1.96
2.30
2.44
2.36
2.14
1.89
1.70
1.59
1.50
1.40
1.28
1.17
1.13
1.17
1.25
1.34
1.38
1.34
1.18
0.87
0.40
-0.19
-0.81
-1.36
-1.79
-2.18
-2.60
-3.11
-3.66
-4.05
-4.08
-3.63
-2.79
-1.77
-0.85
-0.24
0.05
0.09
-0.02
-0.18
-0.39
-0.63
-0.84
-0.97
-0.90
-0.59
-0.08
0.57
1.23
1.74
2.01
2.03
1.85
1.57
1.30
1.08
0.89
0.74
0.61
0.51
0.40
0.19
-0.19
-0.72
-1.29
-1.65
-1.67
-1.41
-1.08
-0.97
-1.21
-1.69
-2.13
-2.27
-2.06
-1.65
-1.29
-1.08
-0.98
-0.80
-0.37
0.30
1.08
1.75
2.14
2.24
2.10
1.86
1.63
1.46
1.39
1.35
1.31
1.22
1.08
0.89
0.68
0.40
0.06
-0.33
-0.65
-0.71
-0.38
0.35
1.22
1.91
2.10
1.68
0.84
-0.01
-0.46
-0.29
0.44
1.43
2.27
2.67
2.50
1.83
0.85
-0.25
-1.31
-2.27
-3.09
-3.74
-4.16
-4.24
-3.81
-2.84
-1.40
0.24
1.74
2.77
3.15
2.92
2.33
1.64
1.06
0.69
0.54
0.60
0.85
1.23
1.60
1.79
1.69
1.32
0.88
0.59
0.54
0.64
0.70
0.59
0.32
0.10
0.06
0.29
0.62
0.84
0.79
0.51
0.15
-0.09
-0.13
-0.06
-0.03
-0.21
-0.68
-1.43
-2.41
-3.50
-4.61
-5.56
-6.21
-6.41
-6.13
-5.41
-4.39
-3.25
-2.20
-1.33
-0.67
-0.13
0.39
0.94
1.46
1.87
2.01
1.87
1.57
1.27
1.18
1.32
1.60
1.84
1.91
1.86
1.84
2.05
2.50
3.02
3.31
3.16
2.52
1.61
0.72
0.04
-0.34
-0.53
-0.60
-0.65
-0.68
-0.73
-0.84
-1.06
-1.41
-1.81
-2.13
-2.29
-2.26
-2.13
-1.98
-1.87
-1.81
-1.72
-1.54
-1.23
-0.80
-0.28
0.20
0.54
0.70
0.69
0.63
0.67
0.86
1.18
1.50
1.74
1.91
2.08
2.33
2.62
2.82
2.79
2.50
2.07
1.73
1.62
1.73
1.90
1.94
1.71
1.26
0.75
0.36
0.17
0.17
0.23
0.26
0.18
-0.06
-0.48
-1.07
-1.79
-2.54
-3.15
-3.50
-3.53
-3.31
-2.97
-2.65
-2.38
-2.15
-1.88
-1.55
-1.18
-0.85
-0.60
-0.45
-0.37
-0.36
-0.42
-0.56
-0.76
-0.96
-1.10
-1.11
-0.90
-0.43
0.32
1.21
2.06
2.57
2.55
2.00
1.19
0.53
0.40
0.91
1.86
2.90
3.66
3.94
3.71
3.05
2.00
0.62
-1.00
-2.65
-4.03
-4.86
-5.00
-4.50
-3.61
-2.59
-1.68
-0.98
-0.47
-0.11
0.12
0.26
0.29
0.20
0.07
0.01
0.11
0.44
0.94
1.46
1.79
1.79
1.45
0.94
0.52
0.41
0.65
1.14
1.66
2.03
2.22
2.26
2.27
2.33
2.46
2.64
2.82
2.97
3.04
2.95
2.60
1.94
0.97
-0.16
-1.28
-2.22
-2.86
-3.15
-3.14
-2.90
-2.55
-2.23
-2.02
-1.93
-1.90
-1.83
-1.67
-1.43
-1.17
-0.93
-0.71
-0.47
-0.18
0.11
0.30
0.33
0.25
0.21
0.39
0.81
1.33
1.73
1.88
1.80
1.69
1.72
1.91
2.13
2.18
1.91
1.37
0.73
0.23
-0.01
0.04
0.27
0.55
0.76
0.77
0.56
0.07
-0.71
-1.74
-2.91
-4.03
-4.87
-5.22
-5.04
-4.42
-3.58
-2.73
-2.02
-1.49
-1.06
-0.71
-0.45
-0.35
-0.43
-0.62
-0.79
-0.76
-0.49
-0.06
0.36
0.66
0.85
1.04
1.31
1.72
2.16
2.49
2.60
2.49
2.25
1.97
1.74
1.56
1.42
1.32
1.25
1.27
1.32
1.31
1.12
0.65
-0.05
-0.87
-1.62
-2.16
-2.43
-2.47
-2.36
-2.16
-1.90
-1.60
-1.26
-0.90
-0.58
-0.36
-0.27
-0.30
-0.31
-0.20
0.13
0.66
1.24
1.70
1.91
1.87
1.71
1.54
1.40
1.22
0.90
0.37
-0.28
-0.86
-1.18
-1.15
-0.79
-0.24
0.37
0.94
1.41
1.75
1.95
2.03
2.05
2.02
1.93
1.70
1.29
0.65
-0.10
-0.86
-1.54
-2.12
-2.62
-3.01
-3.18
-2.99
-2.36
-1.42
-0.44
0.25
0.44
0.17
-0.35
-0.85
-1.11
-1.03
-0.66
-0.12
0.48
1.02
1.39
1.55
1.49
1.30
1.07
0.82
0.51
0.03
-0.65
-1.39
-2.00
-2.21
-1.93
-1.25
-0.42
0.29
0.73
0.92
0.98
1.02
0.98
0.71
0.05
-1.03
-2.31
-3.46
-4.11
-4.07
-3.37
-2.26
-1.05
0.02
0.84
1.39
1.72
1.87
1.83
1.59
1.19
0.71
0.29
0.06
0.11
0.40
0.81
1.11
1.14
0.86
0.38
-0.08
-0.31
-0.24
0.10
0.53
0.90
1.14
1.26
1.33
1.36
1.36
1.28
1.13
0.94
0.80
0.74
0.73
0.69
0.44
-0.09
-0.90
-1.81
-2.58
-3.01
-3.07
-2.88
-2.61
-2.38
-2.13
-1.71
-1.01
-0.09
0.85
1.55
1.89
1.90
1.77
1.61
1.42
1.10
0.62
0.10
-0.19
-0.05
0.52
1.23
1.69
1.69
1.29
0.75
0.37
0.27
0.31
0.32
0.22
0.13
0.28
0.83
1.71
2.61
3.18
3.14
2.45
1.24
-0.23
-1.71
-2.96
-3.81
-4.18
-4.10
-3.68
-3.10
-2.50
-1.95
-1.50
-1.19
-1.03
-1.00
-1.05
-1.08
-0.95
-0.58
0.02
0.75
1.47
2.04
2.39
2.49
2.40
2.21
2.06
2.04
2.14
2.28
2.28
2.04
1.58
1.03
0.57
0.32
0.28
0.35
0.47
0.61
0.79
0.97
0.98
0.61
-0.31
-1.73
-3.38
-4.85
-5.80
-6.05
-5.67
-4.85
-3.84
-2.82
-1.89
-1.14
-0.60
-0.23
0.05
0.33
0.65
0.97
1.18
1.21
1.08
0.95
0.97
1.20
1.54
1.83
1.93
1.85
1.72
1.64
1.66
1.73
1.77
1.82
1.96
2.23
2.53
2.63
2.33
1.61
0.71
0.00
-0.18
0.19
0.84
1.34
1.32
0.70
-0.34
-1.45
-2.34
-2.88
-3.12
-3.21
-3.29
-3.37
-3.35
-3.07
-2.44
-1.50
-0.43
0.52
1.10
1.23
1.00
0.56
0.15
-0.08
-0.06
0.23
0.76
1.43
2.10
2.57
2.64
2.26
1.53
0.69
0.07
-0.16
0.02
0.43
0.85
1.11
1.21
1.30
1.56
2.08
2.80
3.50
3.94
3.89
3.29
2.21
0.85
-0.56
-1.83
-2.86
-3.64
-4.21
-4.56
-4.66
-4.41
-3.82
-2.99
-2.10
-1.42
-1.13
-1.25
-1.66
-2.12
-2.40
-2.39
-2.08
-1.58
-1.04
-0.60
-0.25
0.08
0.53
1.15
1.84
2.40
2.61
2.41
1.90
1.36
0.99
0.86
0.84
0.76
0.57
0.35
0.31
0.55
1.08
1.68
2.15
2.36
2.29
1.97
1.46
0.70
-0.30
-1.48
-2.70
-3.71
-4.31
-4.41
-4.05
-3.36
-2.52
-1.67
-0.92
-0.28
0.25
0.68
0.99
1.13
1.08
0.84
0.53
0.26
0.13
0.15
0.26
0.33
0.32
0.27
0.39
0.81
1.56
2.46
3.21
3.51
3.25
2.57
1.77
1.15
0.90
1.02
1.34
1.67
1.84
1.77
1.47
0.94
0.22
-0.64
-1.55
-2.38
-2.98
-3.25
-3.18
-2.84
-2.41
-2.07
-1.93
-1.93
-1.94
-1.79
-1.44
-0.96
-0.54
-0.31
-0.25
-0.26
-0.19
0.06
0.40
0.66
0.73
0.59
0.40
0.36
0.58
0.99
1.38
1.52
1.32
0.84
0.26
-0.22
-0.43
-0.29
0.14
0.80
1.55
2.25
2.77
3.03
3.06
2.87
2.48
1.85
0.94
-0.19
-1.37
-2.30
-2.77
-2.71
-2.29
-1.85
-1.65
-1.78
-2.10
-2.34
-2.25
-1.78
-1.03
-0.23
0.38
0.64
0.55
0.19
-0.29
-0.73
-1.01
-1.12
-1.10
-0.96
-0.71
-0.30
0.27
0.94
1.56
1.96
2.03
1.77
1.26
0.67
0.18
-0.08
-0.01
0.38
1.00
1.66
2.16
2.33
2.10
1.53
0.73
-0.19
-1.16
-2.08
-2.81
-3.15
-2.92
-2.13
-0.99
0.07
0.64
0.62
0.17
-0.29
-0.39
-0.05
0.56
1.10
1.32
1.19
0.87
0.55
0.35
0.24
0.13
-0.03
-0.20
-0.30
-0.27
-0.09
0.17
0.46
0.74
0.99
1.22
1.41
1.55
1.64
1.70
1.73
1.74
1.71
1.64
1.55
1.44
1.26
0.89
0.21
-0.84
-2.17
-3.49
-4.47
-4.89
-4.76
-4.26
-3.70
-3.24
-2.92
-2.64
-2.31
-1.95
-1.61
-1.36
-1.18
-0.95
-0.60
-0.09
0.46
0.92
1.17
1.19
1.06
0.87
0.67
0.58
0.67
1.03
1.64
2.37
2.96
3.17
2.88
2.15
1.21
0.37
-0.13
-0.20
0.07
0.46
0.72
0.65
0.21
-0.53
-1.40
-2.20
-2.75
-2.92
-2.69
-2.07
-1.25
-0.43
0.11
0.19
-0.17
-0.77
-1.32
-1.58
-1.46
-1.10
-0.73
-0.49
-0.38
-0.29
-0.10
0.19
0.48
0.62
0.60
0.55
0.70
1.18
1.92
2.63
2.99
2.81
2.19
1.45
0.92
0.83
1.13
1.65
2.10
2.26
2.09
1.62
0.95
0.20
-0.59
-1.41
-2.23
-3.00
-3.59
-3.88
-3.75
-3.24
-2.50
-1.73
-1.12
-0.71
-0.47
-0.27
-0.06
0.16
0.30
0.28
0.12
-0.13
-0.34
-0.42
-0.36
-0.22
-0.09
0.01
0.11
0.27
0.52
0.79
0.98
1.01
0.88
0.66
0.48
0.44
0.52
0.65
0.77
0.88
1.07
1.44
1.98
2.50
2.74
2.46
1.58
0.23
-1.25
-2.52
-3.31
-3.50
-3.20
-2.58
-1.84
-1.09
-0.36
0.35
1.01
1.54
1.80
1.75
1.45
1.06
0.68
0.36
0.02
-0.39
-0.78
-0.97
-0.77
-0.08
0.94
1.92
2.50
2.50
2.01
1.33
0.79
0.56
0.66
0.96
1.37
1.80
2.21
2.57
2.82
2.95
2.93
2.76
2.41
1.89
1.20
0.42
-0.35
-0.99
-1.49
-1.92
-2.40
-3.01
-3.64
-4.07
-4.06
-3.56
-2.73
-1.87
-1.22
-0.85
-0.68
-0.55
-0.40
-0.31
-0.43
-0.80
-1.31
-1.72
-1.78
-1.40
-0.69
0.11
0.79
1.21
1.39
1.41
1.33
1.23
1.12
1.03
0.95
0.89
0.85
0.81
0.82
0.91
1.07
1.22
1.27
1.04
0.48
-0.40
-1.41
-2.30
-2.86
-3.02
-2.84
-2.48
-2.08
-1.69
-1.30
-0.85
-0.30
0.27
0.73
0.89
0.71
0.23
-0.33
-0.74
-0.86
-0.74
-0.55
-0.49
-0.65
-0.97
-1.29
-1.43
-1.32
-0.96
-0.41
0.20
0.81
1.32
1.61
1.61
1.34
0.87
0.37
-0.02
-0.26
-0.39
-0.45
-0.47
-0.43
-0.34
-0.27
-0.31
-0.51
-0.77
-0.93
-0.85
-0.54
-0.16
0.10
0.14
0.09
0.15
0.45
0.88
1.22
1.23
0.87
0.34
-0.04
-0.07
0.27
0.79
1.22
1.40
1.31
1.09
0.91
0.89
1.04
1.28
1.48
1.55
1.45
1.31
1.24
1.33
1.55
1.73
1.73
1.52
1.20
0.95
0.88
0.89
0.76
0.26
-0.62
-1.70
-2.68
-3.30
-3.53
-3.51
-3.45
-3.45
-3.51
-3.51
-3.36
-3.04
-2.61
-2.08
-1.49
-0.82
-0.11
0.58
1.13
1.45
1.51
1.34
0.99
0.57
0.21
0.04
0.18
0.66
1.41
2.22
2.84
3.11
2.98
2.57
1.98
1.34
0.71
0.18
-0.17
-0.26
-0.08
0.30
0.72
1.01
1.07
0.97
0.78
0.61
0.45
0.24
-0.06
-0.45
-0.85
-1.15
-1.31
-1.34
-1.32
-1.32
-1.35
-1.39
-1.43
-1.43
-1.40
-1.28
-1.03
-0.60
-0.02
0.59
1.05
1.24
1.11
0.72
0.21
-0.29
-0.67
-0.86
-0.77
-0.34
0.38
1.30
2.22
3.01
3.61
4.03
4.33
4.49
4.39
3.87
2.89
1.49
-0.08
-1.54
-2.65
-3.26
-3.42
-3.24
-2.94
-2.64
-2.39
-2.12
-1.70
-1.08
-0.36
0.22
0.40
0.10
-0.55
-1.26
-1.74
-1.87
-1.77
-1.58
-1.42
-1.25
-0.95
-0.42
0.26
0.91
1.34
1.48
1.42
1.28
1.22
1.26
1.37
1.53
1.75
2.08
2.53
2.99
3.30
3.26
2.66
1.50
-0.10
-1.85
-3.33
-4.21
-4.35
-3.84
-3.00
-2.14
-1.47
-1.00
-0.61
-0.23
0.13
0.35
0.30
0.01
-0.36
-0.56
-0.45
-0.04
0.49
0.91
1.06
0.97
0.76
0.58
0.52
0.56
0.65
0.71
0.74
0.78
0.81
0.80
0.72
0.53
0.29
0.12
0.15
0.37
0.66
0.77
0.47
-0.31
-1.45
-2.66
-3.62
-4.13
-4.20
-3.98
-3.65
-3.32
-2.99
-2.61
-2.13
-1.60
-1.13
-0.81
-0.63
-0.49
-0.28
0.02
0.32
0.48
0.44
0.30
0.22
0.39
0.84
1.44
2.01
2.39
2.55
2.53
2.44
2.33
2.23
2.09
1.89
1.60
1.25
0.91
0.64
0.50
0.51
0.61
0.67
0.56
0.18
-0.45
-1.22
-1.94
-2.45
-2.67
-2.60
-2.31
-1.93
-1.55
-1.27
-1.08
-0.94
-0.74
-0.41
0.07
0.63
1.09
1.34
1.35
1.24
1.21
1.38
1.73
2.04
2.07
1.67
0.96
0.25
-0.12
0.02
0.59
1.28
1.79
1.92
1.71
1.30
0.93
0.77
0.88
1.21
1.62
1.86
1.72
1.03
-0.19
-1.69
-3.09
-3.99
-4.16
-3.66
-2.77
-1.91
-1.39
-1.29
-1.47
-1.63
-1.54
-1.10
-0.47
0.10
0.40
0.43
0.34
0.38
0.69
1.22
1.74
1.97
1.80
1.30
0.72
0.34
0.31
0.60
1.03
1.39
1.51
1.37
1.02
0.56
0.12
-0.23
-0.41
-0.41
-0.28
-0.12
0.00
0.03
-0.04
-0.15
-0.27
-0.40
-0.59
-0.86
-1.21
-1.49
-1.62
-1.54
-1.28
-0.96
-0.70
-0.52
-0.37
-0.24
-0.15
-0.16
-0.35
-0.67
-0.95
-0.95
-0.59
0.06
0.80
1.35
1.56
1.39
0.95
0.34
-0.29
-0.77
-0.95
-0.72
-0.14
0.60
1.21
1.45
1.29
0.94
0.71
0.84
1.34
2.00
2.51
2.66
2.41
1.84
1.12
0.39
-0.31
-0.98
-1.68
-2.41
-3.08
-3.58
-3.76
-3.50
-2.85
-1.94
-0.96
-0.12
0.48
0.76
0.76
0.55
0.22
-0.11
-0.29
-0.21
0.16
0.76
1.42
1.92
2.15
2.06
1.73
1.28
0.79
0.31
-0.15
-0.55
-0.81
-0.86
-0.66
-0.25
0.27
0.78
1.14
1.27
1.12
0.70
0.05
-0.72
-1.46
-2.02
-2.26
-2.18
-1.82
-1.29
-0.73
-0.21
0.21
0.52
0.69
0.72
0.65
0.54
0.42
0.36
0.31
0.30
0.32
0.40
0.57
0.81
1.04
1.18
1.19
1.12
1.06
1.10
1.25
1.40
1.44
1.24
0.80
0.21
-0.39
-0.85
-1.02
-0.84
-0.34
0.31
0.85
0.97
0.46
-0.68
-2.18
-3.64
-4.69
-5.15
-5.05
-4.57
-3.88
-3.05
-2.14
-1.20
-0.36
0.25
0.58
0.68
0.74
0.90
1.21
1.58
1.84
1.88
1.72
1.42
1.14
0.95
0.90
1.00
1.23
1.57
1.97
2.32
2.50
2.45
2.15
1.69
1.18
0.73
0.42
0.32
0.45
0.81
1.32
1.85
2.22
2.25
1.87
1.12
0.16
-0.79
-1.54
-2.03
-2.30
-2.44
-2.50
-2.51
-2.47
-2.36
-2.19
-2.06
-2.08
-2.26
-2.59
-2.94
-3.13
-3.00
-2.49
-1.71
-0.88
-0.20
0.22
0.43
0.55
0.74
1.02
1.35
1.64
1.87
2.13
2.51
3.06
3.70
4.27
4.60
4.61
4.30
3.79
3.15
2.44
1.66
0.78
-0.18
-1.15
-2.04
-2.74
-3.18
-3.36
-3.33
-3.19
-3.02
-2.88
-2.79
-2.73
-2.68
-2.63
-2.52
-2.30
-1.92
-1.40
-0.85
-0.44
-0.31
-0.50
-0.89
-1.26
-1.39
-1.13
-0.51
0.32
1.13
1.70
1.89
1.71
1.30
0.86
0.64
0.76
1.20
1.77
2.18
2.24
1.90
1.31
0.68
0.16
-0.22
-0.56
-0.93
-1.32
-1.62
-1.71
-1.59
-1.36
-1.23
-1.30
-1.52
-1.70
-1.65
-1.30
-0.76
-0.26
0.03
0.04
-0.15
-0.37
-0.53
-0.55
-0.43
-0.16
0.22
0.65
1.03
1.29
1.40
1.43
1.52
1.78
2.22
2.75
3.21
3.46
3.42
3.10
2.59
2.00
1.48
1.15
1.06
1.09
0.98
0.45
-0.61
-2.04
-3.44
-4.37
-4.58
-4.05
-3.03
-1.80
-0.63
0.36
1.11
1.56
1.68
1.48
1.00
0.38
-0.27
-0.83
-1.21
-1.34
-1.20
-0.78
-0.16
0.48
1.01
1.35
1.57
1.81
2.14
2.51
2.76
2.71
2.33
1.76
1.21
0.86
0.74
0.79
0.87
0.87
0.74
0.45
0.04
-0.46
-0.99
-1.51
-1.94
-2.25
-2.42
-2.47
-2.46
-2.39
-2.24
-1.96
-1.50
-0.86
-0.11
0.63
1.17
1.38
1.21
0.77
0.23
-0.23
-0.58
-0.86
-1.14
-1.40
-1.55
-1.44
-0.99
-0.30
0.43
0.90
0.96
0.57
-0.09
-0.78
-1.28
-1.42
-1.19
-0.65
0.02
0.66
1.09
1.24
1.09
0.74
0.35
0.02
-0.16
-0.22
-0.21
-0.21
-0.24
-0.34
-0.50
-0.67
-0.79
-0.73
-0.35
0.39
1.39
2.38
3.02
3.06
2.44
1.32
0.02
-1.16
-2.00
-2.37
-2.27
-1.75
-0.94
-0.03
0.78
1.32
1.54
1.51
1.34
1.15
0.95
0.81
0.76
0.88
1.20
1.62
1.94
1.96
1.55
0.76
-0.20
-1.11
-1.82
-2.29
-2.52
-2.54
-2.29
-1.76
-1.02
-0.24
0.33
0.52
0.34
-0.08
-0.53
-0.80
-0.83
-0.70
-0.52
-0.41
-0.36
-0.34
-0.27
-0.11
0.12
0.35
0.45
0.35
0.05
-0.29
-0.47
-0.28
0.34
1.26
2.20
2.85
2.99
2.57
1.73
0.71
-0.27
-1.08
-1.66
-2.05
-2.28
-2.39
-2.42
-2.41
-2.35
-2.28
-2.14
-1.93
-1.61
-1.15
-0.60
-0.02
0.48
0.77
0.79
0.56
0.19
-0.12
-0.18
0.08
0.60
1.20
1.69
1.92
1.86
1.58
1.16
0.74
0.43
0.29
0.34
0.52
0.74
0.90
1.01
1.07
1.13
1.14
1.00
0.55
-0.24
-1.28
-2.28
-3.00
-3.29
-3.20
-2.90
-2.55
-2.18
-1.72
-1.14
-0.51
-0.03
0.12
-0.07
-0.42
-0.65
-0.52
-0.04
0.58
1.01
1.04
0.65
0.05
-0.47
-0.68
-0.55
-0.23
0.08
0.21
0.17
0.08
0.08
0.27
0.58
0.89
1.05
1.08
1.14
1.47
2.16
3.12
4.02
4.45
4.15
3.11
1.55
-0.15
-1.64
-2.65
-3.09
-3.01
-2.55
-1.87
-1.19
-0.69
-0.45
-0.45
-0.62
-0.84
-1.00
-1.05
-0.94
-0.67
-0.27
0.17
0.62
1.01
1.36
1.70
2.08
2.46
2.77
2.87
2.73
2.41
2.02
1.66
1.35
1.01
0.62
0.21
-0.03
0.04
0.49
1.16
1.80
2.11
2.00
1.57
1.04
0.58
0.26
0.00
-0.31
-0.72
-1.23
-1.78
-2.30
-2.76
-3.09
-3.22
-3.09
-2.68
-2.08
-1.52
-1.20
-1.29
-1.75
-2.39
-2.93
-3.14
-2.89
-2.28
-1.48
-0.75
-0.28
-0.11
-0.15
-0.21
-0.11
0.25
0.86
1.57
2.20
2.64
2.84
2.76
2.41
1.81
1.06
0.34
-0.11
-0.09
0.46
1.38
2.32
2.94
3.03
2.59
1.77
0.77
-0.28
-1.27
-2.19
-2.94
-3.42
-3.52
-3.21
-2.56
-1.70
-0.80
-0.00
0.59
0.91
0.88
0.53
-0.06
-0.70
-1.17
-1.30
-1.03
-0.48
0.15
0.63
0.84
0.74
0.42
0.02
-0.33
-0.53
-0.56
-0.41
-0.16
0.10
0.27
0.34
0.35
0.40
0.63
1.07
1.67
2.28
2.66
2.64
2.13
1.22
0.09
-1.00
-1.84
-2.30
-2.36
-2.11
-1.64
-1.03
-0.35
0.31
0.83
1.08
1.00
0.68
0.29
0.07
0.11
0.35
0.55
0.49
0.08
-0.57
-1.20
-1.54
-1.47
-1.06
-0.49
0.06
0.51
0.86
1.11
1.25
1.21
0.90
0.37
-0.19
-0.47
-0.22
0.69
2.05
3.46
4.38
4.40
3.44
1.70
-0.39
-2.35
-3.87
-4.79
-5.12
-4.93
-4.31
-3.42
-2.46
-1.65
-1.15
-0.97
-0.96
-0.84
-0.48
0.08
0.67
1.01
0.99
0.67
0.20
-0.26
-0.62
-0.86
-0.96
-0.88
-0.60
-0.11
0.45
0.95
1.27
1.38
1.32
1.19
1.10
1.13
1.35
1.80
2.42
3.09
3.61
3.82
3.66
3.20
2.56
1.85
1.09
0.21
-0.77
-1.70
-2.33
-2.48
-2.08
-1.34
-0.60
-0.12
-0.02
-0.16
-0.35
-0.39
-0.21
0.12
0.45
0.68
0.73
0.58
0.28
-0.15
-0.62
-1.05
-1.37
-1.52
-1.48
-1.25
-0.87
-0.38
0.12
0.55
0.83
0.92
0.84
0.68
0.55
0.56
0.76
1.13
1.60
2.07
2.41
2.54
2.40
2.03
1.48
0.78
-0.02
-0.87
-1.71
-2.42
-2.92
-3.15
-3.16
-3.05
-2.89
-2.68
-2.30
-1.70
-0.93
-0.18
0.31
0.39
0.12
-0.32
-0.72
-0.93
-0.96
-0.86
-0.67
-0.41
-0.07
0.30
0.60
0.77
0.77
0.69
0.63
0.62
0.62
0.56
0.42
0.29
0.33
0.67
1.32
2.12
2.83
3.17
2.96
2.18
0.94
-0.56
-2.04
-3.27
-4.05
-4.31
-4.09
-3.52
-2.79
-2.05
-1.38
-0.84
-0.44
-0.26
-0.32
-0.64
-1.11
-1.56
-1.75
-1.53
-0.84
0.19
1.27
2.12
2.51
2.40
1.92
1.32
0.85
0.67
0.82
1.22
1.75
2.27
2.65
2.85
2.83
2.56
2.09
1.46
0.76
-0.01
-0.81
-1.61
-2.34
-2.91
-3.22
-3.22
-2.95
-2.50
-1.95
-1.35
-0.77
-0.22
0.23
0.57
0.77
0.86
0.84
0.72
0.45
0.01
-0.51
-0.97
-1.14
-0.93
-0.39
0.26
0.77
1.00
0.98
0.90
0.88
0.97
1.10
1.15
1.13
1.13
1.30
1.69
2.20
2.57
2.58
2.12
1.29
0.28
-0.68
-1.46
-2.00
-2.31
-2.41
-2.31
-2.04
-1.67
-1.29
-0.99
-0.81
-0.72
-0.68
-0.65
-0.59
-0.50
-0.36
-0.15
0.14
0.50
0.88
1.20
1.43
1.57
1.62
1.57
1.42
1.14
0.77
0.35
0.04
-0.02
0.21
0.69
1.23
1.62
1.74
1.61
1.34
1.09
0.93
0.87
0.84
0.75
0.56
0.25
-0.19
-0.75
-1.45
-2.21
-2.89
-3.33
-3.43
-3.20
-2.82
-2.44
-2.16
-1.93
-1.66
-1.26
-0.79
-0.40
-0.23
-0.36
-0.69
-1.02
-1.15
-0.97
-0.51
0.07
0.60
0.99
1.21
1.37
1.57
1.87
2.22
2.52
2.59
2.38
1.94
1.43
1.08
0.99
1.15
1.40
1.57
1.56
1.41
1.23
1.09
1.00
0.83
0.43
-0.27
-1.23
-2.27
-3.20
-3.80
-4.00
-3.81
-3.35
-2.77
-2.19
-1.61
-0.97
-0.19
0.69
1.52
2.04
2.07
1.58
0.75
-0.10
-0.71
-0.94
-0.82
-0.52
-0.14
0.24
0.63
1.06
1.47
1.76
1.81
1.58
1.10
0.56
0.18
0.15
0.60
1.46
2.49
3.32
3.61
3.15
1.99
0.42
-1.15
-2.33
-2.93
-3.00
-2.70
-2.24
-1.79
-1.42
-1.16
-1.01
-0.99
-1.04
-1.10
-1.04
-0.76
-0.27
0.35
0.95
1.37
1.53
1.41
1.12
0.75
0.43
0.28
0.36
0.63
1.01
1.33
1.45
1.32
0.96
0.50
0.07
-0.26
-0.44
-0.51
-0.49
-0.43
-0.35
-0.32
-0.38
-0.56
-0.84
-1.16
-1.45
-1.65
-1.73
-1.68
-1.50
-1.23
-0.89
-0.53
-0.17
0.13
0.36
0.47
0.45
0.34
0.19
0.13
0.26
0.57
0.96
1.23
1.18
0.73
-0.01
-0.77
-1.29
-1.38
-1.03
-0.44
0.14
0.47
0.48
0.24
-0.03
-0.15
0.00
0.41
0.96
1.54
2.07
2.52
2.86
3.01
2.86
2.31
1.35
0.12
-1.13
-2.08
-2.51
-2.35
-1.73
-0.91
-0.16
0.30
0.42
0.24
-0.10
-0.44
-0.67
-0.74
-0.64
-0.45
-0.27
-0.15
-0.08
0.00
0.24
0.67
1.20
1.65
1.80
1.54
0.96
0.28
-0.20
-0.28
0.06
0.70
1.44
2.09
2.51
2.63
2.38
1.78
0.96
0.17
-0.32
-0.30
0.17
0.86
1.39
1.45
0.92
-0.05
-1.24
-2.35
-3.21
-3.74
-3.94
-3.84
-3.51
-2.99
-2.38
-1.76
-1.19
-0.73
-0.42
-0.30
-0.38
-0.63
-0.96
-1.27
-1.51
-1.66
-1.75
-1.78
-1.73
-1.50
-1.04
-0.39
0.32
0.91
1.29
1.42
1.40
1.33
1.24
1.16
1.11
1.19
1.49
2.03
2.71
3.38
3.81
3.90
3.64
3.10
2.36
1.40
0.22
-1.16
-2.57
-3.76
-4.50
-4.67
-4.35
-3.76
-3.18
-2.74
-2.44
-2.14
-1.69
-0.98
-0.05
0.97
1.83
2.34
2.40
2.02
1.36
0.64
0.07
-0.28
-0.49
-0.67
-0.91
-1.18
-1.34
-1.22
-0.79
-0.14
0.58
1.21
1.69
2.10
2.49
2.87
3.17
3.29
3.17
2.83
2.33
1.76
1.15
0.51
-0.10
-0.63
-1.04
-1.37
-1.69
-2.04
-2.41
-2.71
-2.82
-2.63
-2.13
-1.40
-0.59
0.07
0.45
0.51
0.33
0.08
-0.05
0.04
0.31
0.61
0.79
0.79
0.64
0.45
0.34
0.32
0.33
0.28
0.15
0.02
-0.01
0.13
0.39
0.68
0.90
1.04
1.14
1.27
1.39
1.45
1.33
0.97
0.40
-0.30
-1.04
-1.77
-2.43
-3.01
-3.50
-3.87
-4.12
-4.25
-4.22
-3.92
-3.28
-2.30
-1.13
0.02
0.92
1.49
1.77
1.88
1.93
1.95
1.88
1.70
1.38
0.96
0.54
0.21
0.12
0.38
0.98
1.76
2.44
2.69
2.44
1.80
1.16
0.87
1.06
1.59
2.16
2.48
2.45
2.18
1.81
1.43
1.02
0.46
-0.27
-1.13
-1.92
-2.48
-2.64
-2.35
-1.75
-1.04
-0.52
-0.37
-0.63
-1.11
-1.51
-1.60
-1.32
-0.82
-0.38
-0.22
-0.35
-0.64
-0.92
-1.06
-1.04
-0.88
-0.57
-0.09
0.57
1.29
1.88
2.11
1.86
1.20
0.35
-0.40
-0.81
-0.78
-0.33
0.40
1.21
1.93
2.39
2.47
2.14
1.42
0.40
-0.79
-2.01
-3.11
-3.92
-4.30
-4.21
-3.74
-3.05
-2.31
-1.60
-0.88
-0.10
0.73
1.50
2.05
2.29
2.25
2.12
2.03
2.03
2.03
1.88
1.56
1.17
0.88
0.76
0.73
0.64
0.40
0.13
0.01
0.23
0.74
1.28
1.54
1.36
0.83
0.22
-0.16
-0.16
0.14
0.51
0.70
0.55
0.06
-0.67
-1.46
-2.11
-2.53
-2.68
-2.70
-2.67
-2.68
-2.68
-2.51
-2.10
-1.46
-0.78
-0.31
-0.22
-0.50
-0.94
-1.31
-1.42
-1.23
-0.83
-0.39
-0.03
0.20
0.25
0.12
-0.17
-0.54
-0.85
-0.92
-0.59
0.13
1.08
1.97
2.55
2.71
2.55
2.26
2.02
1.91
1.79
1.53
0.99
0.25
-0.46
-0.90
-0.91
-0.58
-0.17
0.01
-0.18
-0.61
-1.01
-1.11
-0.84
-0.34
0.08
0.19
-0.04
-0.42
-0.68
-0.66
-0.33
0.13
0.56
0.87
1.09
1.32
1.64
1.99
2.25
2.28
1.98
1.35
0.57
-0.11
-0.44
-0.27
0.34
1.18
1.97
2.48
2.62
2.39
1.79
0.81
-0.53
-2.12
-3.63
-4.71
-5.10
-4.79
-4.06
-3.29
-2.71
-2.35
-1.99
-1.42
-0.62
0.23
0.84
1.06
0.88
0.50
0.15
-0.05
-0.08
-0.04
0.03
0.09
0.16
0.24
0.34
0.49
0.69
0.98
1.36
1.73
1.95
1.89
1.51
0.90
0.28
-0.10
-0.09
0.31
0.93
1.46
1.61
1.25
0.46
-0.46
-1.14
-1.32
-1.04
-0.58
-0.29
-0.43
-0.93
-1.54
-1.89
-1.78
-1.25
-0.55
0.06
0.42
0.51
0.47
0.43
0.42
0.40
0.30
0.05
-0.36
-0.81
-1.14
-1.19
-0.87
-0.23
0.54
1.19
1.57
1.70
1.75
1.90
2.24
2.66
2.95
2.91
2.49
1.87
1.25
0.82
0.60
0.52
0.42
0.21
-0.14
-0.59
-1.09
-1.62
-2.16
-2.68
-3.08
-3.28
-3.18
-2.74
-2.02
-1.10
-0.09
0.87
1.63
2.04
1.94
1.28
0.20
-1.04
-2.06
-2.60
-2.57
-2.10
-1.46
-0.92
-0.57
-0.41
-0.33
-0.26
-0.23
-0.34
-0.63
-1.02
-1.30
-1.24
-0.74
0.13
1.15
2.03
2.57
2.71
2.57
2.35
2.22
2.21
2.21
2.06
1.60
0.81
-0.20
-1.24
-2.05
-2.43
-2.31
-1.79
-1.06
-0.39
0.07
0.30
0.41
0.50
0.63
0.68
0.51
0.07
-0.53
-0.99
-1.02
-0.52
0.33
1.15
1.57
1.49
1.04
0.51
0.16
0.09
0.24
0.53
0.87
1.19
1.43
1.51
1.34
0.91
0.31
-0.27
-0.59
-0.52
-0.03
0.72
1.50
2.06
2.20
1.80
0.93
-0.22
-1.39
-2.35
-2.98
-3.29
-3.34
-3.19
-2.82
-2.22
-1.42
-0.53
0.28
0.87
1.15
1.18
1.01
0.71
0.33
-0.12
-0.62
-1.11
-1.52
-1.79
-1.88
-1.75
-1.38
-0.73
0.17
1.19
2.13
2.78
3.01
2.79
2.23
1.53
0.88
0.47
0.43
0.77
1.35
1.91
2.18
1.97
1.31
0.40
-0.44
-1.02
-1.29
-1.40
-1.50
-1.70
-1.98
-2.27
-2.50
-2.64
-2.68
-2.62
-2.35
-1.85
-1.18
-0.58
-0.32
-0.57
-1.24
-2.01
-2.47
-2.34
-1.61
-0.55
0.46
1.14
1.39
1.33
1.15
1.01
1.00
1.08
1.20
1.31
1.36
1.34
1.21
0.98
0.67
0.35
0.13
0.05
0.16
0.43
0.79
1.13
1.31
1.24
0.90
0.33
-0.30
-0.82
-1.06
-0.99
-0.72
-0.45
-0.34
-0.47
-0.78
-1.07
-1.16
-0.94
-0.48
0.02
0.28
0.16
-0.29
-0.86
-1.24
-1.21
-0.74
-0.02
0.71
1.21
1.41
1.37
1.22
1.12
1.14
1.34
1.67
2.06
2.43
2.62
2.56
2.23
1.70
1.15
0.70
0.42
0.27
0.24
0.30
0.44
0.67
0.90
0.98
0.75
0.14
-0.74
-1.65
-2.33
-2.60
-2.44
-1.99
-1.44
-0.92
-0.52
-0.22
-0.00
0.17
0.27
0.25
0.08
-0.25
-0.66
-1.02
-1.18
-1.13
-0.95
-0.81
-0.85
-1.05
-1.24
-1.18
-0.73
0.01
0.76
1.21
1.21
0.87
0.47
0.28
0.38
0.66
0.96
1.17
1.24
1.25
1.20
1.12
0.98
0.81
0.61
0.32
-0.15
-0.92
-1.91
-2.93
-3.64
-3.81
-3.44
-2.74
-2.01
-1.41
-0.93
-0.44
0.15
0.76
1.19
1.31
1.11
0.72
0.31
-0.04
-0.35
-0.70
-1.07
-1.40
-1.54
-1.37
-0.89
-0.15
0.72
1.57
2.26
2.70
2.84
2.70
2.41
2.08
1.81
1.66
1.64
1.76
2.03
2.38
2.65
2.65
2.16
1.16
-0.21
-1.64
-2.84
-3.61
-3.93
-3.91
-3.67
-3.30
-2.79
-2.17
-1.51
-0.92
-0.51
-0.33
-0.35
-0.49
-0.73
-0.98
-1.17
-1.21
-1.02
-0.61
-0.09
0.36
0.60
0.62
0.54
0.51
0.62
0.82
1.00
1.07
1.05
1.05
1.13
1.25
1.30
1.16
0.82
0.44
0.25
0.41
0.91
1.59
2.18
2.44
2.25
1.64
0.77
-0.13
-0.87
-1.35
-1.57
-1.64
-1.66
-1.71
-1.77
-1.72
-1.48
-1.03
-0.51
-0.09
0.06
-0.11
-0.53
-1.02
-1.41
-1.54
-1.36
-0.89
-0.22
0.45
0.94
1.13
1.01
0.65
0.25
-0.02
-0.05
0.12
0.35
0.47
0.34
-0.01
-0.42
-0.66
-0.54
0.00
0.84
1.71
2.34
2.59
2.47
2.12
1.68
1.22
0.69
0.01
-0.86
-1.87
-2.81
-3.44
-3.59
-3.23
-2.49
-1.56
-0.65
0.13
0.70
1.07
1.27
1.35
1.35
1.28
1.12
0.88
0.59
0.36
0.32
0.49
0.81
1.04
0.97
0.52
-0.20
-0.93
-1.38
-1.40
-1.03
-0.46
0.14
0.63
0.95
1.06
0.94
0.59
0.14
-0.18
-0.13
0.40
1.27
2.13
2.56
2.34
1.49
0.33
-0.77
-1.52
-1.84
-1.85
-1.78
-1.79
-1.93
-2.05
-1.96
-1.46
-0.57
0.53
1.52
2.11
2.17
1.80
1.21
0.64
0.25
0.02
-0.10
-0.16
-0.17
-0.11
-0.03
0.03
-0.03
-0.16
-0.25
-0.10
0.36
1.07
1.76
2.17
2.16
1.79
1.29
0.88
0.67
0.59
0.54
0.41
0.18
-0.11
-0.40
-0.73
-1.17
-1.77
-2.51
-3.25
-3.79
-3.97
-3.71
-3.07
-2.22
-1.39
-0.76
-0.42
-0.32
-0.39
-0.52
-0.63
-0.70
-0.71
-0.60
-0.34
0.07
0.57
0.99
1.15
1.00
0.57
0.07
-0.29
-0.44
-0.37
-0.18
0.07
0.38
0.76
1.17
1.54
1.75
1.74
1.54
1.26
1.00
0.84
0.81
0.92
1.21
1.66
2.14
2.43
2.25
1.45
0.15
-1.30
-2.50
-3.12
-3.13
-2.67
-2.01
-1.32
-0.70
-0.13
0.39
0.81
1.08
1.16
1.04
0.75
0.36
-0.06
-0.41
-0.58
-0.50
-0.18
0.27
0.64
0.80
0.68
0.38
0.04
-0.16
-0.18
-0.07
0.06
0.08
-0.05
-0.33
-0.62
-0.79
-0.68
-0.25
0.45
1.23
1.88
2.24
2.30
2.11
1.79
1.36
0.82
0.13
-0.68
-1.43
-1.91
-1.95
-1.56
-0.91
-0.25
0.25
0.48
0.52
0.44
0.31
0.15
-0.06
-0.31
-0.58
-0.83
-1.06
-1.22
-1.32
-1.37
-1.38
-1.43
-1.57
-1.78
-1.94
-1.87
-1.41
-0.60
0.35
1.14
1.55
1.56
1.35
1.16
1.12
1.19
1.24
1.16
0.96
0.79
0.75
0.87
1.07
1.21
1.22
1.06
0.79
0.46
0.12
-0.21
-0.53
-0.88
-1.32
-1.87
-2.46
-2.94
-3.09
-2.78
-2.04
-1.10
-0.22
0.41
0.75
0.91
0.99
1.04
1.00
0.85
0.61
0.42
0.41
0.62
0.97
1.37
1.73
2.00
2.13
2.04
1.67
1.06
0.41
-0.02
-0.04
0.31
0.76
0.96
0.71
0.06
-0.67
-1.16
-1.26
-1.04
-0.79
-0.78
-1.06
-1.56
-2.06
-2.38
-2.46
-2.33
-2.06
-1.73
-1.39
-1.05
-0.73
-0.42
-0.10
0.21
0.46
0.62
0.64
0.55
0.46
0.45
0.58
0.77
0.87
0.77
0.44
0.01
-0.27
-0.25
0.10
0.63
1.09
1.27
1.10
0.65
0.07
-0.43
-0.70
-0.66
-0.32
0.30
1.08
1.90
2.60
2.99
2.90
2.23
1.03
-0.47
-1.90
-2.89
-3.21
-2.89
-2.20
-1.49
-1.04
-0.89
-0.86
-0.75
-0.43
0.02
0.38
0.46
0.21
-0.28
-0.81
-1.21
-1.38
-1.37
-1.22
-1.01
-0.74
-0.43
-0.15
0.06
0.16
0.19
0.27
0.52
0.99
1.61
2.23
2.67
2.83
2.74
2.51
2.32
2.33
2.61
3.09
3.54
3.67
3.21
2.04
0.28
-1.67
-3.35
-4.35
-4.48
-3.82
-2.67
-1.36
-0.20
0.59
0.96
0.89
0.52
-0.01
-0.54
-0.96
-1.26
-1.47
-1.61
-1.67
-1.58
-1.29
-0.85
-0.39
-0.04
0.15
0.22
0.25
0.33
0.38
0.32
0.06
-0.31
-0.55
-0.42
0.19
1.17
2.23
3.02
3.27
2.92
2.10
1.04
-0.00
-0.81
-1.26
-1.35
-1.14
-0.81
-0.54
-0.48
-0.70
-1.18
-1.81
-2.41
-2.80
-2.83
-2.40
-1.56
-0.41
0.80
1.82
2.46
2.60
2.24
1.49
0.55
-0.40
-1.17
-1.63
-1.72
-1.44
-0.88
-0.17
0.50
1.01
1.27
1.31
1.18
1.02
0.90
0.85
0.89
0.99
1.15
1.40
1.75
2.16
2.59
2.90
3.03
2.91
2.55
2.01
1.38
0.76
0.22
-0.20
-0.50
-0.68
-0.78
-0.78
-0.73
-0.68
-0.73
-0.95
-1.34
-1.81
-2.24
-2.53
-2.66
-2.67
-2.60
-2.47
-2.24
-1.90
-1.52
-1.27
-1.27
-1.52
-1.88
-2.11
-1.99
-1.47
-0.71
0.04
0.56
0.74
0.67
0.52
0.45
0.56
0.82
1.19
1.57
1.93
2.19
2.34
2.35
2.17
1.78
1.18
0.41
-0.46
-1.32
-2.04
-2.47
-2.51
-2.17
-1.51
-0.72
0.05
0.66
1.04
1.19
1.14
0.93
0.62
0.28
-0.00
-0.19
-0.25
-0.19
-0.07
0.02
0.03
-0.09
-0.31
-0.55
-0.68
-0.57
-0.16
0.50
1.25
1.89
2.24
2.21
1.85
1.29
0.74
0.35
0.19
0.21
0.23
0.07
-0.39
-1.11
-1.90
-2.52
-2.79
-2.67
-2.22
-1.59
-0.88
-0.19
0.41
0.83
0.98
0.85
0.54
0.23
0.09
0.15
0.29
0.33
0.19
-0.11
-0.37
-0.46
-0.35
-0.13
0.04
0.11
0.13
0.24
0.54
0.94
1.25
1.23
0.86
0.31
-0.09
-0.03
0.58
1.54
2.53
3.18
3.28
2.84
2.01
1.00
-0.04
-0.98
-1.80
-2.45
-2.87
-3.05
-2.99
-2.72
-2.34
-1.91
-1.49
-1.13
-0.77
-0.36
0.10
0.56
0.92
1.02
0.82
0.41
0.00
-0.22
-0.12
0.26
0.75
1.23
1.63
1.98
2.28
2.45
2.30
1.70
0.69
-0.53
-1.59
-2.18
-2.16
-1.66
-0.93
-0.23
0.26
0.53
0.63
0.68
0.69
0.63
0.39
-0.14
-0.95
-1.90
-2.69
-3.05
-2.85
-2.26
-1.61
-1.23
-1.23
-1.46
-1.57
-1.27
-0.54
0.45
1.34
1.88
1.99
1.73
1.28
0.77
0.32
0.01
-0.11
-0.03
0.15
0.30
0.28
0.08
-0.13
-0.15
0.13
0.66
1.24
1.66
1.82
1.78
1.70
1.67
1.69
1.71
1.64
1.53
1.43
1.40
1.42
1.40
1.28
1.04
0.74
0.43
0.08
-0.38
-0.97
-1.60
-2.11
-2.31
-2.17
-1.79
-1.38
-1.14
-1.12
-1.27
-1.44
-1.55
-1.57
-1.52
-1.42
-1.30
-1.19
-1.16
-1.25
-1.44
-1.62
-1.63
-1.39
-0.92
-0.41
-0.05
0.06
-0.02
-0.09
0.01
0.33
0.75
1.11
1.31
1.36
1.39
1.50
1.76
2.09
2.38
2.46
2.27
1.79
1.10
0.34
-0.33
-0.82
-1.11
-1.23
-1.28
-1.30
-1.28
-1.17
-0.96
-0.66
-0.37
-0.17
-0.02
0.16
0.54
1.13
1.77
2.20
2.13
1.47
0.35
-0.82
-1.65
-1.89
-1.59
-0.97
-0.33
0.12
0.32
0.35
0.36
0.41
0.53
0.70
0.86
1.01
1.17
1.36
1.57
1.74
1.84
1.84
1.74
1.50
1.08
0.40
-0.57
-1.73
-2.88
-3.70
-3.97
-3.65
-2.94
-2.18
-1.67
-1.50
-1.57
-1.68
-1.72
-1.72
-1.79
-1.96
-2.13
-2.10
-1.77
-1.17
-0.54
-0.15
-0.10
-0.32
-0.53
-0.49
-0.08
0.60
1.34
1.89
2.10
1.99
1.74
1.58
1.68
2.06
2.57
2.96
3.07
2.86
2.50
2.19
1.99
1.78
1.30
0.35
-0.98
-2.35
-3.30
-3.53
-3.10
-2.32
-1.61
-1.23
-1.16
-1.18
-1.04
-0.67
-0.16
0.31
0.62
0.75
0.79
0.82
0.84
0.78
0.53
0.11
-0.33
-0.53
-0.28
0.42
1.40
2.27
2.72
2.63
2.15
1.63
1.36
1.45
1.78
2.10
2.21
2.07
1.80
1.52
1.28
1.07
0.85
0.65
0.53
0.46
0.32
-0.09
-0.89
-2.00
-3.16
-4.02
-4.39
-4.25
-3.76
-3.12
-2.43
-1.67
-0.78
0.17
1.05
1.65
1.86
1.70
1.28
0.77
0.30
-0.06
-0.26
-0.29
-0.13
0.13
0.41
0.53
0.41
0.03
-0.47
-0.90
-1.06
-0.91
-0.55
-0.18
0.05
0.10
0.09
0.21
0.58
1.17
1.79
2.26
2.45
2.39
2.18
1.87
1.43
0.78
-0.06
-0.99
-1.76
-2.21
-2.28
-2.13
-1.95
-1.91
-1.96
-1.97
-1.77
-1.30
-0.65
-0.07
0.23
0.14
-0.31
-0.91
-1.38
-1.45
-1.03
-0.24
0.59
1.11
1.10
0.59
-0.14
-0.69
-0.82
-0.47
0.13
0.62
0.77
0.58
0.21
-0.06
-0.07
0.14
0.37
0.48
0.45
0.41
0.54
0.90
1.33
1.58
1.38
0.67
-0.37
-1.42
