1611120888.00
64.000000
-0.00
-0.00
-0.00
-0.00
-0.00
-0.00
-0.00
-0.00
-0.00
-0.00
0.00
0.01
0.01
-0.00
-0.03
-0.05
-0.05
0.00
0.13
0.36
0.66
1.01
1.37
1.72
2.06
2.40
2.79
3.24
3.80
4.42
5.06
5.66
6.20
6.68
7.15
7.68
8.31
9.14
10.09
11.04
11.88
12.56
13.14
13.76
14.65
15.96
17.91
20.32
22.90
25.38
27.58
29.57
31.68
34.32
37.81
42.54
48.15
54.10
59.83
64.97
69.58
74.14
79.34
85.71
93.76
103.00
112.62
121.73
129.77
136.75
143.30
150.75
157.77
166.64
177.95
191.79
206.97
220.57
228.25
225.36
208.53
176.87
132.76
80.05
23.07
-34.94
-92.44
-149.16
-205.23
-260.37
-313.74
-363.87
-409.83
-450.91
-486.50
-515.74
-537.23
-549.22
-549.96
-538.37
-514.21
-478.67
-433.88
-382.45
-327.02
-269.84
-212.63
-156.66
-102.95
-52.37
-5.90
35.58
71.43
101.35
125.50
144.38
158.69
169.15
176.37
180.75
182.57
182.07
179.51
175.23
169.65
163.18
156.15
148.81
141.30
133.69
126.02
118.33
110.69
103.16
95.80
88.68
81.83
75.25
68.95
62.95
57.25
51.86
46.78
42.03
37.59
33.45
29.61
26.07
22.81
19.83
17.11
14.67
12.48
10.54
8.83
7.35
6.07
4.97
4.05
3.27
2.62
2.09
1.65
1.30
1.01
0.79
0.61
0.47
0.37
0.29
0.23
0.19
0.17
0.16
0.16
0.17
0.19
0.21
0.25
0.28
0.32
0.36
0.41
0.45
0.50
0.55
0.60
0.65
0.71
0.76
0.82
0.89
0.98
1.08
1.20
1.31
1.41
1.49
1.54
1.59
1.67
1.79
1.99
2.25
2.54
2.85
3.14
3.41
3.69
4.01
4.42
4.93
5.52
6.14
6.75
7.28
7.75
8.20
8.73
9.41
10.30
11.33
12.41
13.39
14.14
14.65
15.06
15.54
16.31
17.37
18.55
19.46
19.64
18.72
16.55
13.36
9.51
5.47
1.50
-2.48
-6.77
-11.74
-17.61
-24.18
-30.86
-36.80
-41.31
-44.05
-45.22
-45.45
-45.47
-45.91
-47.24
-49.70
-53.28
-57.36
-60.49
-60.65
-55.81
-45.04
-29.24
-11.13
5.79
18.52
25.85
28.48
28.30
27.13
25.95
24.64
22.73
20.05
17.06
14.67
13.57
13.87
15.03
16.23
16.75
16.33
15.23
13.93
12.96
12.58
12.73
13.07
13.11
12.46
11.01
9.04
7.07
5.66
5.17
5.58
6.52
7.48
7.99
7.88
7.28
6.51
5.93
5.78
6.10
6.75
7.47
7.97
8.01
7.51
6.60
5.57
4.70
4.09
3.64
3.09
2.20
1.01
-0.21
-1.09
-1.33
-0.93
-0.13
0.69
1.23
1.30
0.91
0.18
-0.74
-1.66
-2.38
-2.68
-2.43
-1.60
-0.34
1.05
2.27
3.06
3.35
3.24
2.91
2.54
2.21
1.89
1.48
0.89
0.17
-0.56
-1.17
-1.67
-2.22
-3.02
-4.14
-5.40
-6.47
-7.05
-7.03
-6.56
-5.98
-5.52
-5.27
-5.09
-4.77
-4.20
-3.46
-2.82
-2.57
-2.90
-3.74
-4.83
-5.83
-6.52
-6.82
-6.88
-6.91
-7.07
-7.45
-8.12
-9.19
-10.80
-13.00
-15.52
-17.73
-18.79
-18.03
-15.30
-11.12
-6.41
-2.07
1.36
3.87
5.78
7.49
9.17
10.74
11.94
12.54
12.47
11.91
11.21
10.74
10.75
11.20
11.81
12.15
11.88
10.88
9.40
7.95
7.01
6.83
7.27
7.89
8.18
7.82
6.78
5.28
3.63
2.00
0.42
-1.16
-2.71
-4.03
-4.81
-4.85
-4.19
-3.14
-2.15
-1.62
-1.79
-2.73
-4.36
-6.51
-8.86
-10.95
-12.19
-12.12
-10.57
-7.80
-4.42
-1.08
1.75
3.97
5.74
7.26
8.62
9.76
10.59
11.14
11.54
12.00
12.60
13.24
13.71
13.77
13.33
12.44
11.25
9.94
8.64
7.50
6.64
6.22
6.29
6.73
7.25
7.37
6.72
5.14
2.80
0.09
-2.55
-4.81
-6.56
-7.82
-8.72
-9.30
-9.60
-9.66
-9.53
-9.30
-9.12
-9.11
-9.41
-10.09
-11.19
-12.59
-14.03
-15.06
-15.19
-14.15
-11.95
-9.00
-5.95
-3.34
-1.46
-0.16
0.92
2.15
3.66
5.19
6.36
6.82
6.55
5.82
5.05
4.58
4.45
4.47
4.38
4.05
3.56
3.14
3.00
3.20
3.61
3.95
3.96
3.52
2.68
1.65
0.68
-0.03
-0.46
-0.72
-1.00
-1.45
-2.10
-2.87
-3.71
-4.62
-5.64
-6.78
-7.88
-8.64
-8.81
-8.34
-7.48
-6.77
-6.73
-7.66
-9.45
-11.62
-13.52
-14.54
-14.32
-12.81
-10.24
-7.03
-3.61
-0.37
2.48
4.88
6.84
8.37
9.45
10.07
10.24
9.99
9.37
8.43
7.26
6.06
5.12
4.70
4.89
5.49
6.06
6.13
5.45
4.10
2.47
1.05
0.17
-0.06
0.19
0.64
1.00
1.12
0.95
0.58
0.13
-0.32
-0.72
-1.12
-1.57
-2.09
-2.70
-3.35
-4.01
-4.62
-5.19
-5.61
-5.83
-5.79
-5.55
-5.36
-5.55
-6.44
-8.06
-10.16
-12.16
-13.38
-13.29
-11.66
-8.69
-4.90
-1.00
2.40
4.90
6.41
7.14
7.42
7.59
7.84
8.22
8.65
9.01
9.21
9.21
9.03
8.70
8.25
7.70
7.08
6.47
5.99
5.73
5.76
5.97
6.19
6.15
5.66
4.71
3.48
2.24
1.23
0.53
0.07
-0.32
-0.71
-1.14
-1.55
-1.95
-2.40
-3.04
-3.94
-4.99
-5.97
-6.67
-7.02
-7.12
-7.17
-7.27
-7.38
-7.33
-7.01
-6.57
-6.35
-6.80
-8.14
-10.20
-12.38
-13.89
-14.06
-12.59
-9.63
-5.73
-1.62
2.10
5.06
7.17
8.57
9.43
9.93
10.10
9.99
9.62
9.14
8.71
8.49
8.47
8.51
8.31
7.70
6.66
5.44
4.39
3.79
3.71
3.97
4.23
4.22
3.82
3.17
2.44
1.88
1.57
1.52
1.62
1.76
1.82
1.71
1.37
0.76
-0.03
-0.91
-1.71
-2.39
-2.96
-3.52
-4.21
-5.05
-5.97
-6.82
-7.46
-7.77
-7.74
-7.50
-7.22
-7.09
-7.24
-7.76
-8.65
-9.86
-11.25
-12.53
-13.33
-13.23
-11.94
-9.42
-6.02
-2.31
0.98
3.36
4.69
5.20
5.33
5.53
6.03
6.76
7.49
7.94
7.93
7.49
6.79
6.08
5.61
5.53
5.85
6.49
7.29
8.11
8.82
9.29
9.43
9.16
8.47
7.43
6.22
4.98
3.85
2.88
2.02
1.15
0.16
-1.00
-2.24
-3.35
-4.13
-4.45
-4.35
-4.02
-3.68
-3.55
-3.68
-4.05
-4.50
-4.94
-5.29
-5.60
-5.92
-6.30
-6.70
-7.05
-7.29
-7.47
-7.74
-8.33
-9.46
-11.17
-13.22
-15.08
-16.11
-15.82
-14.06
-11.20
-7.93
-4.99
-2.88
-1.65
-1.01
-0.57
-0.04
0.59
1.14
1.38
1.27
0.93
0.61
0.47
0.48
0.49
0.32
-0.05
-0.41
-0.47
0.00
1.00
2.30
3.53
4.37
4.64
4.36
3.65
2.67
1.55
0.45
-0.46
-0.98
-1.04
-0.70
-0.19
0.19
0.23
-0.10
-0.65
-1.19
-1.53
-1.62
-1.54
-1.47
-1.57
-1.96
-2.67
-3.61
-4.64
-5.52
-6.04
-6.09
-5.67
-4.94
-4.23
-3.86
-4.15
-5.21
-6.93
-8.91
-10.55
-11.27
-10.68
-8.79
-5.97
-2.80
0.16
2.56
4.33
5.54
6.34
6.82
7.03
7.01
6.88
6.75
6.71
6.79
6.95
7.03
6.92
6.51
5.88
5.19
4.68
4.52
4.71
5.07
5.38
5.41
5.17
4.77
4.42
4.22
4.14
4.08
3.95
3.71
3.38
2.94
2.39
1.75
1.13
0.69
0.59
0.82
1.24
1.58
1.61
1.27
0.65
-0.06
-0.66
-1.03
-1.11
-0.98
-0.78
-0.75
-1.15
-2.18
-3.85
-5.88
-7.82
-9.10
-9.34
-8.40
-6.54
-4.20
-1.92
-0.03
1.36
2.32
3.02
3.55
3.91
4.03
3.89
3.57
3.23
3.02
3.04
3.28
3.60
3.88
3.97
3.85
3.62
3.41
3.41
3.68
4.18
4.73
5.08
5.06
4.63
3.90
3.11
2.48
2.13
2.02
1.98
1.79
1.26
0.31
-0.98
-2.40
-3.65
-4.48
-4.78
-4.58
-4.07
-3.44
-2.87
-2.48
-2.37
-2.57
-3.03
-3.57
-3.93
-3.89
-3.43
-2.77
-2.37
-2.66
-3.85
-5.71
-7.70
-9.13
-9.47
-8.55
-6.55
-3.96
-1.31
0.97
2.66
3.76
4.40
4.77
4.98
5.07
5.01
4.82
4.54
4.35
4.38
4.69
5.14
5.52
5.61
5.35
4.92
4.58
4.58
4.96
5.55
6.08
6.38
6.46
6.53
6.81
7.35
8.04
8.60
8.86
8.80
8.70
8.87
9.60
10.91
12.64
14.56
16.42
18.10
19.55
20.80
21.88
22.96
24.26
26.07
28.58
31.66
34.85
37.47
38.96
39.18
38.63
38.26
39.08
41.61
45.63
50.11
53.56
54.42
51.56
44.51
33.50
19.32
3.09
-14.14
-31.59
-48.91
-66.16
-83.57
-101.49
-120.17
-139.72
-160.11
-181.05
-201.90
-221.69
-239.18
-253.12
-262.58
-267.13
-266.85
-262.22
-253.85
-242.39
-228.50
-212.81
-195.90
-178.08
-159.22
-138.78
-116.04
-90.51
-62.36
-32.55
-2.56
26.06
52.31
75.89
97.07
116.19
133.33
148.04
159.69
167.85
172.71
175.05
175.95
176.24
176.06
174.84
171.67
165.91
157.61
147.62
137.32
127.97
120.25
114.00
108.49
102.93
96.88
90.44
84.03
77.97
72.18
66.25
59.65
52.03
43.40
33.95
23.83
13.09
1.80
-9.71
-20.69
-30.09
-36.97
-41.03
-42.73
-43.24
-43.85
-45.52
-48.58
-52.72
-57.22
-61.30
-64.22
-65.34
-64.21
-60.69
-55.26
-49.18
-44.40
-42.99
-46.30
-54.38
-65.77
-78.06
-88.83
-96.63
-101.37
-104.12
-106.40
-109.28
-112.70
-115.38
-115.25
-110.23
-99.02
-81.63
-59.40
-34.55
-9.55
13.51
33.27
49.07
60.89
69.01
73.92
76.27
76.74
75.95
74.28
71.83
68.42
63.85
58.09
51.37
44.25
37.46
31.64
27.13
23.85
21.21
18.33
14.27
8.42
0.68
-8.53
-18.51
-28.61
-38.52
-48.31
-58.16
-68.20
-78.22
-87.70
-96.05
-102.83
-107.94
-111.50
-113.72
-114.71
-114.63
-113.78
-112.70
-112.14
-112.63
-114.29
-116.63
-118.81
-120.00
-119.64
-117.46
-113.25
-106.59
-96.86
-83.43
-66.00
-44.90
-21.02
4.41
30.26
55.73
80.40
104.21
127.22
149.41
170.54
190.08
207.22
221.03
230.74
235.94
236.77
233.75
227.68
219.29
209.19
197.75
185.31
172.32
159.43
147.47
137.23
129.27
123.64
119.96
117.46
115.33
112.92
109.87
106.10
101.64
96.53
90.78
84.41
77.59
70.67
64.08
58.15
52.96
48.27
43.58
38.38
32.41
25.80
19.01
12.71
7.45
3.51
0.76
-1.16
-2.61
-3.76
-4.52
-4.70
-4.15
-2.95
-1.37
0.21
1.46
2.17
2.26
1.77
0.91
-0.01
-0.61
-0.61
0.06
1.17
2.28
3.01
3.17
2.84
2.27
1.65
1.02
0.33
-0.45
-1.24
-1.79
-1.94
-1.75
-1.58
-1.96
-3.26
-5.53
-8.37
-11.09
-12.96
-13.53
-12.73
-10.94
-8.79
-7.02
-6.21
-6.67
-8.35
-10.88
-13.73
-16.27
-18.02
-18.71
-18.36
-17.20
-15.57
-13.85
-12.39
-11.37
-10.85
-10.69
-10.71
-10.70
-10.51
-10.16
-9.72
-9.30
-8.95
-8.67
-8.45
-8.26
-8.09
-7.91
-7.67
-7.30
-6.73
-6.05
-5.48
-5.32
-5.76
-6.82
-8.22
-9.61
-10.71
-11.46
-12.02
-12.64
-13.41
-14.27
-15.00
-15.40
-15.47
-15.34
-15.28
-15.46
-15.87
-16.28
-16.40
-15.99
-15.10
-14.05
-13.39
-13.53
-14.56
-16.08
-17.27
-17.33
-15.80
-12.86
-9.22
-5.75
-3.08
-1.27
0.12
1.62
3.54
5.71
7.59
8.63
8.54
7.45
5.78
4.01
2.48
1.31
0.41
-0.33
-0.97
-1.52
-1.96
-2.33
-2.73
-3.23
-3.87
-4.56
-5.24
-5.84
-6.34
-6.80
-7.22
-7.62
-7.96
-8.23
-8.41
-8.55
-8.60
-8.52
-8.25
-7.77
-7.17
-6.58
-6.16
-5.99
-6.00
-6.11
-6.29
-6.58
-7.11
-7.94
-8.99
-10.04
-10.90
-11.50
-12.06
-12.87
-14.17
-15.83
-17.40
-18.26
-17.95
-16.42
-14.07
-11.52
-9.28
-7.51
-6.08
-4.77
-3.44
-2.20
-1.26
-0.80
-0.81
-1.06
-1.27
-1.22
-0.88
-0.40
0.00
0.16
-0.00
-0.39
-0.87
-1.26
-1.45
-1.33
-0.94
-0.34
0.34
0.90
1.23
1.21
0.89
0.35
-0.21
-0.65
-0.91
-0.99
-0.99
-0.95
-0.92
-0.90
-0.97
-1.24
-1.83
-2.81
-4.06
-5.36
-6.44
-7.11
-7.35
-7.27
-7.07
-6.94
-7.05
-7.59
-8.67
-10.30
-12.24
-14.01
-15.05
-14.86
-13.33
-10.73
-7.58
-4.48
-1.80
0.30
1.83
2.84
3.38
3.50
3.35
3.10
2.97
3.04
3.27
3.52
3.70
3.75
3.71
3.62
3.50
3.35
3.21
3.11
3.14
3.33
3.59
3.77
3.68
3.22
2.38
1.34
0.33
-0.44
-0.82
-0.81
-0.52
-0.11
0.22
0.33
0.10
-0.48
-1.39
-2.53
-3.76
-4.89
-5.78
-6.35
-6.64
-6.80
-7.05
-7.61
-8.64
-10.20
-12.19
-14.34
-16.19
-17.23
-17.06
-15.58
-12.97
-9.73
-6.42
-3.48
-1.14
0.59
1.85
2.76
3.37
3.67
3.62
3.27
2.78
2.39
2.31
2.58
3.03
3.37
3.34
2.90
2.29
1.85
1.84
2.30
2.98
3.59
3.94
4.06
4.16
4.42
4.80
5.09
5.00
4.31
3.04
1.40
-0.25
-1.57
-2.32
-2.47
-2.14
-1.61
-1.22
-1.24
-1.79
-2.84
-4.24
-5.74
-7.07
-7.91
-8.06
-7.52
-6.61
-5.93
-6.11
-7.53
-9.98
-12.72
-14.71
-15.12
-13.66
-10.66
-6.87
-3.07
0.15
2.55
4.10
4.86
4.97
4.55
3.79
2.92
2.18
1.70
1.48
1.41
1.33
1.11
0.72
0.18
-0.44
-1.08
-1.67
-2.16
-2.49
-2.64
-2.64
-2.65
-2.87
-3.49
-4.55
-5.87
-7.15
-8.07
-8.53
-8.67
-8.73
-8.90
-9.27
-9.71
-10.09
-10.34
-10.49
-10.61
-10.73
-10.78
-10.68
-10.39
-9.94
-9.49
-9.15
-9.07
-9.33
-10.07
-11.36
-13.20
-15.36
-17.40
-18.74
-18.83
-17.38
-14.45
-10.50
-6.22
-2.34
0.65
2.60
3.70
4.40
5.03
5.72
6.26
6.32
5.69
4.43
2.92
1.66
0.97
0.80
0.85
0.70
0.08
-0.95
-2.10
-3.01
-3.47
-3.50
-3.39
-3.48
-4.05
-5.20
-6.81
-8.64
-10.41
-11.94
-13.12
-13.99
-14.57
-14.90
-15.05
-15.06
-14.93
-14.60
-13.89
-12.53
-10.36
-7.44
-4.21
-1.38
0.20
-0.08
-2.30
-5.81
-9.38
-11.58
-11.26
-8.10
-2.68
3.73
9.80
14.60
17.98
20.29
22.05
23.44
24.26
24.04
22.51
19.77
16.30
12.74
9.64
7.30
5.82
5.17
5.23
5.73
6.30
6.42
5.70
3.97
1.41
-1.60
-4.59
-7.28
-9.52
-11.38
-12.95
-14.29
-15.50
-16.67
-18.03
-19.78
-22.09
-24.92
-27.94
-30.62
-32.41
-32.97
-32.39
-31.12
-29.96
-29.72
-31.00
-33.94
-38.21
-42.92
-46.87
-48.76
-47.49
-42.55
-34.16
-23.28
-11.26
0.54
11.17
20.23
27.81
34.23
39.72
44.30
47.83
50.23
51.68
52.61
53.66
55.33
57.82
60.87
63.84
65.89
66.41
65.16
62.42
58.82
55.03
51.55
48.48
45.60
42.53
38.91
34.55
29.48
23.93
18.29
13.02
8.66
5.63
4.20
4.30
5.48
6.97
7.87
7.39
5.19
1.59
-2.46
-5.57
-6.39
-4.10
1.26
8.74
16.81
23.84
28.57
30.48
29.82
27.35
24.07
20.85
18.28
16.61
15.91
16.10
17.00
18.31
19.50
19.93
19.00
16.45
12.56
8.10
4.12
1.46
0.46
0.83
1.84
2.70
2.88
2.19
0.74
-1.24
-3.57
-6.10
-8.68
-11.08
-13.10
-14.61
-15.74
-16.77
-18.04
-19.69
-21.62
-23.50
-24.95
-25.78
-26.12
-26.33
-26.89
-28.13
-30.06
-32.38
-34.62
-36.27
-36.97
-36.56
-35.02
-32.53
-29.29
-25.60
-21.75
-17.95
-14.37
-11.08
-8.15
-5.70
-3.85
-2.73
-2.35
-2.60
-3.27
-4.20
-5.30
-6.60
-8.16
-9.97
-11.82
-13.50
-14.84
-15.83
-16.60
-17.39
-18.33
-19.43
-20.59
-21.62
-22.45
-23.04
-23.42
-23.58
-23.39
-22.62
-21.03
-18.52
-15.25
-11.68
-8.43
-6.05
-4.93
-5.04
-6.09
-7.59
-9.06
-10.18
-10.85
-11.08
-11.06
-11.17
-11.89
-13.73
-16.94
-21.26
-25.84
-29.48
-31.12
-30.30
-27.38
-23.38
-19.43
-16.34
-14.26
-12.82
-11.46
-9.83
-7.99
-6.29
-5.11
-4.60
-4.56
-4.52
-4.05
-2.86
-1.00
1.30
3.78
6.35
9.04
11.93
14.91
17.67
19.82
21.06
21.36
20.91
20.01
18.94
17.86
16.80
15.83
14.98
14.31
13.75
13.17
12.32
11.12
9.65
8.18
6.93
5.94
4.97
3.63
1.66
-0.96
-3.81
-6.27
-7.70
-7.78
-6.76
-5.34
-4.53
-5.14
-7.42
-10.89
-14.46
-16.83
-17.05
-14.78
-10.40
-4.74
1.33
7.13
12.32
16.74
20.32
23.00
24.69
25.43
25.43
25.02
24.53
24.17
23.92
23.62
23.04
22.05
20.68
19.13
17.65
16.42
15.46
14.65
13.89
13.11
12.39
11.80
11.34
10.80
9.92
8.52
6.66
4.68
2.98
1.85
1.31
1.11
0.95
0.61
0.10
-0.45
-0.89
-1.18
-1.49
-2.06
-3.11
-4.67
-6.56
-8.42
-9.84
-10.53
-10.46
-9.94
-9.53
-9.88
-11.45
-14.21
-17.62
-20.68
-22.32
-21.76
-18.79
-13.87
-7.89
-1.78
3.77
8.47
12.30
15.28
17.37
18.48
18.58
17.93
17.03
16.39
16.35
16.91
17.74
18.43
18.65
18.30
17.49
16.48
15.45
14.54
13.74
13.03
12.33
11.60
10.80
9.91
8.89
7.69
6.32
4.83
3.35
2.04
1.00
0.25
-0.32
-0.86
-1.49
-2.22
-3.04
-3.92
-4.91
-6.10
-7.52
-9.08
-10.56
-11.67
-12.14
-11.94
-11.30
-10.70
-10.74
-11.83
-14.02
-16.86
-19.55
-21.16
-20.97
-18.71
-14.61
-9.31
-3.56
1.91
6.57
10.09
12.42
13.66
14.07
13.97
13.59
13.06
12.44
11.77
11.13
10.64
10.40
10.34
10.33
10.15
9.64
8.73
7.54
6.26
5.09
4.17
3.50
3.02
2.58
2.09
1.50
0.87
0.24
-0.33
-0.91
-1.63
-2.56
-3.66
-4.74
-5.62
-6.20
-6.59
-6.97
-7.48
-8.13
-8.75
-9.17
-9.25
-9.04
-8.70
-8.35
-8.09
-7.98
-8.16
-8.87
-10.31
-12.49
-15.08
-17.40
-18.61
-18.06
-15.45
-11.03
-5.50
0.22
5.33
9.28
11.98
13.60
14.45
14.79
14.71
14.22
13.34
12.22
11.08
10.14
9.53
9.16
8.87
8.49
8.03
7.58
7.32
7.32
7.51
7.66
7.55
7.01
6.06
4.85
3.60
2.50
1.60
0.84
0.11
-0.71
-1.65
-2.68
-3.70
-4.60
-5.25
-5.61
-5.71
-5.69
-5.77
-6.12
-6.78
-7.63
-8.36
-8.65
-8.35
-7.57
-6.68
-6.22
-6.62
-8.06
-10.38
-13.02
-15.21
-16.24
-15.63
-13.32
-9.68
-5.32
-0.95
2.93
6.06
8.42
10.13
11.27
11.85
11.79
11.09
9.82
8.22
6.52
4.98
3.71
2.70
1.88
1.19
0.63
0.30
0.29
0.65
1.27
1.90
2.21
1.95
1.07
-0.18
-1.31
-1.92
-1.83
-1.23
-0.55
-0.22
-0.46
-1.15
-1.98
-2.66
-3.06
-3.31
-3.59
-4.02
-4.54
-4.94
-5.03
-4.70
-3.99
-3.07
-2.21
-1.72
-1.95
-3.16
-5.37
-8.29
-11.30
-13.69
-14.87
-14.64
-13.16
-10.87
-8.28
-5.73
-3.38
-1.22
0.85
2.86
4.73
6.28
7.30
7.62
7.26
6.40
5.36
4.41
3.67
3.08
2.50
1.87
1.33
1.11
1.40
2.21
3.24
4.10
4.39
3.94
2.85
1.48
0.27
-0.46
-0.62
-0.39
-0.11
-0.11
-0.57
-1.43
-2.50
-3.59
-4.53
-5.16
-5.34
-4.87
-3.65
-1.83
0.14
1.52
1.60
0.08
-2.78
-6.20
-9.20
-11.00
-11.25
-10.10
-7.98
-5.35
-2.60
0.08
2.55
4.69
6.35
7.36
7.65
7.34
6.62
5.82
5.15
4.72
4.49
4.36
4.27
4.17
4.08
3.98
3.89
3.85
3.91
4.10
4.43
4.76
4.90
4.69
4.05
3.10
2.03
1.05
0.26
-0.39
-1.02
-1.74
-2.62
-3.65
-4.71
-5.58
-5.99
-5.75
-4.82
-3.47
-2.20
-1.65
-2.34
-4.39
-7.46
-10.79
-13.48
-14.74
-14.23
-12.10
-8.91
-5.41
-2.20
0.39
2.36
3.89
5.19
6.30
7.14
7.60
7.60
7.21
6.56
5.77
4.94
4.08
3.17
2.23
1.29
0.42
-0.24
-0.54
-0.34
0.40
1.51
2.67
3.49
3.67
3.10
1.98
0.72
-0.26
-0.62
-0.33
0.40
1.10
1.27
0.54
-1.13
-3.44
-5.78
-7.47
-8.02
-7.28
-5.52
-3.37
-1.62
-1.01
-2.04
-4.74
-8.63
-12.77
-16.02
-17.49
-16.76
-14.04
-10.01
-5.55
-1.40
1.99
4.46
6.11
7.13
7.77
8.21
8.57
8.89
9.14
9.27
9.26
9.13
8.87
8.42
7.66
6.54
5.19
3.91
3.11
3.02
3.60
4.55
5.40
5.79
5.58
4.87
3.86
2.75
1.69
0.80
0.17
-0.08
0.09
0.61
1.23
1.65
1.67
1.25
0.61
0.06
-0.10
0.27
1.14
2.33
3.49
4.16
3.82
2.10
-1.10
-5.42
-10.07
-14.07
-16.58
-17.12
-15.81
-13.19
-9.93
-6.63
-3.65
-1.13
0.88
2.35
3.21
3.38
2.86
1.78
0.39
-0.93
-1.84
-2.09
-1.68
-0.83
0.10
0.81
1.18
1.29
1.38
1.60
1.97
2.31
2.43
2.20
1.67
1.07
0.63
0.45
0.39
0.19
-0.37
-1.31
-2.42
-3.33
-3.73
-3.59
-3.13
-2.77
-2.82
-3.36
-4.24
-5.07
-5.56
-5.51
-4.96
-4.04
-3.03
-2.27
-2.17
-3.11
-5.24
-8.33
-11.61
-14.10
-14.91
-13.60
-10.47
-6.32
-2.15
1.31
3.75
5.31
6.29
6.93
7.26
7.14
6.48
5.37
4.12
3.13
2.72
2.98
3.68
4.43
4.84
4.72
4.13
3.36
2.72
2.48
2.72
3.35
4.11
4.68
4.77
4.21
3.01
1.44
-0.00
-0.90
-0.95
-0.23
0.89
1.92
2.43
2.23
1.40
0.21
-1.07
-2.16
-2.88
-3.07
-2.65
-1.68
-0.46
0.48
0.45
-1.03
-3.97
-7.76
-11.36
-13.64
-13.89
-12.11
-8.86
-5.02
-1.33
1.83
4.41
6.47
8.08
9.18
9.72
9.75
9.43
9.01
8.70
8.51
8.33
7.98
7.35
6.42
5.36
4.36
3.65
3.33
3.38
3.61
3.80
3.78
3.54
3.18
2.83
2.58
2.43
2.24
1.91
1.37
0.64
-0.14
-0.84
-1.39
-1.78
-2.12
-2.54
-3.12
-3.84
-4.55
-5.04
-5.08
-4.49
-3.25
-1.62
-0.13
0.48
-0.41
-3.03
-6.99
-11.29
-14.68
-16.11
-15.19
-12.32
-8.41
-4.44
-1.07
1.50
3.40
4.87
6.01
6.82
7.24
7.24
6.87
6.26
5.51
4.76
4.09
3.48
2.89
2.22
1.47
0.75
0.36
0.51
1.29
2.45
3.55
4.20
4.20
3.66
2.85
2.02
1.24
0.42
-0.56
-1.72
-2.92
-3.95
-4.61
-4.85
-4.76
-4.53
-4.44
-4.72
-5.53
-6.80
-8.22
-9.28
-9.47
-8.58
-6.94
-5.40
-5.11
-6.98
-11.23
-17.12
-23.19
-27.68
-29.30
-27.67
-23.45
-18.02
-13.00
-9.82
-9.34
-11.74
-16.31
-21.47
-25.02
-24.69
-19.10
-8.43
5.39
19.25
30.06
35.92
36.74
34.02
30.03
26.70
25.06
25.06
25.98
27.01
27.56
27.46
26.81
25.80
24.52
22.92
20.86
18.32
15.44
12.56
10.02
8.06
6.63
5.49
4.33
2.89
1.10
-0.93
-3.00
-4.92
-6.61
-8.08
-9.46
-10.84
-12.27
-13.77
-15.33
-17.02
-18.94
-21.20
-23.82
-26.57
-29.05
-30.68
-31.02
-29.85
-27.30
-23.80
-19.90
-16.09
-12.67
-9.74
-7.24
-5.09
-3.26
-1.77
-0.62
0.30
1.20
2.35
3.95
5.97
8.19
10.28
11.93
13.07
13.83
14.45
15.13
15.94
16.77
17.39
17.68
17.62
17.32
16.97
16.64
16.29
15.75
14.91
13.77
12.55
11.53
10.86
10.45
10.00
9.17
7.86
6.28
4.82
3.88
3.60
3.81
4.17
4.29
3.90
2.93
1.39
-0.57
-2.70
-4.58
-5.68
-5.48
-3.71
-0.47
3.77
8.23
12.16
14.97
16.44
16.71
16.15
15.21
14.24
13.37
12.60
11.79
10.84
9.73
8.47
7.10
5.64
4.12
2.63
1.36
0.52
0.21
0.37
0.71
0.84
0.45
-0.52
-1.92
-3.39
-4.63
-5.47
-5.99
-6.34
-6.70
-7.14
-7.66
-8.20
-8.69
-9.10
-9.30
-9.08
-8.19
-6.53
-4.27
-2.00
-0.44
-0.15
-1.12
-2.64
-3.57
-2.79
0.24
5.31
11.62
18.12
24.04
29.07
33.31
37.06
40.48
43.46
45.69
46.80
46.61
45.29
43.31
41.35
40.04
39.78
40.66
42.58
45.28
48.46
51.67
54.17
54.95
53.05
48.16
41.09
33.84
28.92
28.45
33.21
42.44
54.24
66.47
77.49
86.53
93.50
98.43
101.29
102.00
100.66
97.94
94.99
92.90
91.91
90.81
86.98
77.34
59.67
33.89
2.39
-30.64
-60.83
-85.18
-102.97
-115.58
-125.39
-134.52
-143.95
-153.38
-161.79
-168.19
-172.27
-174.48
-175.72
-176.80
-177.99
-178.92
-178.89
-177.39
-174.30
-169.75
-163.71
-155.60
-144.35
-128.98
-109.25
-86.14
-61.56
-37.68
-16.16
2.25
17.61
30.29
40.55
48.44
53.95
57.32
59.08
59.93
60.44
60.82
60.86
60.17
58.38
55.50
51.98
48.63
46.40
46.00
47.70
51.08
55.25
59.13
62.02
63.93
65.64
68.43
73.46
81.25
91.25
101.74
110.06
113.17
108.43
94.53
72.11
43.80
13.45
-15.01
-38.69
-56.28
-67.60
-72.83
-71.93
-64.75
-51.87
-35.31
-18.61
-5.85
-0.18
-2.74
-12.53
-27.24
-44.44
-62.34
-79.72
-95.43
-107.90
-115.17
-115.58
-108.67
-95.74
-79.59
-63.67
-50.90
-42.73
-38.91
-37.91
-37.80
-37.02
-34.85
-31.24
-26.36
-20.07
-11.75
-0.46
14.59
33.59
55.99
80.58
105.62
128.83
147.45
158.38
158.91
147.57
124.98
93.97
58.89
24.24
-6.42
-31.01
-48.66
-59.14
-62.55
-59.56
-51.94
-42.70
-35.52
-33.64
-38.67
-50.15
-65.95
-83.19
-99.21
-112.07
-120.53
-123.83
-121.61
-114.00
-101.77
-86.26
-69.12
-51.95
-36.06
-22.45
-11.80
-4.51
-0.53
0.85
1.02
1.94
5.72
14.18
28.25
47.54
70.07
92.28
109.74
118.18
114.93
99.85
75.53
46.49
17.82
-6.13
-22.63
-30.71
-30.97
-25.31
-16.53
-7.98
-2.91
-3.76
-11.46
-25.26
-43.02
-61.84
-78.81
-91.64
-99.00
-100.60
-97.17
-90.01
-80.66
-70.44
-60.17
-50.26
-40.83
-31.84
-23.16
-14.43
-4.90
6.50
21.02
39.69
62.93
89.95
118.36
144.07
161.95
167.27
157.39
132.98
98.15
59.12
22.30
-7.50
-27.77
-37.99
-38.74
-31.18
-17.14
0.47
17.43
28.99
31.32
22.97
5.44
-17.48
-41.29
-62.28
-78.38
-89.04
-94.52
-95.22
-91.53
-84.07
-73.91
-62.57
-51.49
-41.46
-32.46
-23.76
-14.58
-4.58
6.09
17.05
28.19
39.90
52.99
68.23
85.84
105.25
124.94
142.56
155.15
159.65
153.55
135.78
107.36
71.49
32.77
-3.99
-35.06
-58.38
-73.27
-79.81
-78.26
-69.14
-53.88
-35.36
-17.80
-5.78
-2.61
-9.24
-23.96
-43.34
-63.60
-81.86
-96.50
-106.94
-112.95
-114.21
-110.38
-101.48
-88.30
-72.42
-55.74
-39.86
-25.46
-12.31
0.38
13.36
26.86
40.52
53.78
66.30
78.41
90.86
104.05
117.21
127.96
132.72
128.15
112.78
87.87
57.21
25.65
-2.61
-25.07
-40.84
-49.78
-51.71
-46.17
-33.01
-13.14
11.15
36.69
60.25
79.10
91.12
94.52
87.80
70.22
42.62
7.79
-29.85
-65.32
-94.49
-114.93
-126.13
-129.02
-125.32
-116.95
-105.68
-92.96
-79.71
-66.27
-52.33
-37.25
-20.52
-2.11
17.23
36.23
53.49
68.01
79.56
88.68
96.35
103.31
109.33
112.80
111.02
101.31
82.23
54.75
22.30
-10.02
-36.98
-54.74
-61.69
-58.39
-46.74
-29.01
-7.28
16.63
40.59
61.74
76.43
81.06
73.31
53.30
24.01
-9.50
-41.67
-68.34
-87.77
-100.46
-107.99
-111.61
-111.40
-106.52
-96.10
-80.31
-60.63
-39.51
-19.45
-2.23
11.51
22.40
31.95
42.18
54.93
71.09
89.83
108.17
121.56
125.13
115.66
93.02
60.60
24.41
-8.79
-33.47
-46.63
-47.87
-38.77
-21.76
0.58
25.60
50.17
70.35
81.77
80.73
65.78
38.73
4.38
-30.89
-61.37
-83.69
-97.41
-104.20
-106.38
-105.59
-102.37
-96.42
-87.41
-75.53
-61.57
-46.58
-31.46
-16.67
-2.23
12.06
26.46
41.06
55.66
69.94
83.47
95.71
105.71
111.90
112.08
104.03
86.57
60.49
28.73
-4.40
-34.75
-59.55
-77.79
-89.54
-94.85
-93.07
-83.24
-65.37
-41.70
-16.94
2.93
12.85
10.65
-2.09
-20.89
-40.33
-56.09
-66.17
-70.91
-71.86
-70.55
-67.66
-62.85
-55.30
-44.45
-30.48
-14.41
2.27
18.06
32.03
44.06
54.80
65.27
76.36
88.38
101.03
113.43
124.38
132.39
135.70
132.36
120.85
100.87
73.96
43.46
13.59
-12.15
-32.19
-47.27
-59.49
-70.68
-80.98
-88.57
-90.43
-84.09
-68.96
-46.86
-21.53
2.59
21.53
32.69
35.29
30.47
20.98
10.60
2.99
0.47
3.03
8.23
12.21
11.37
4.03
-8.99
-24.93
-40.64
-54.03
-64.66
-73.28
-80.71
-86.84
-90.46
-89.87
-83.98
-73.07
-58.85
-43.74
-29.76
-17.66
-6.88
3.87
15.64
28.51
41.46
52.95
61.67
67.14
69.72
70.18
69.08
66.55
62.39
56.58
49.61
42.49
36.45
32.47
30.97
31.88
34.78
39.09
44.14
48.91
52.07
52.23
48.52
41.19
31.73
22.29
14.79
10.12
7.97
7.51
8.13
9.97
13.47
18.60
24.07
27.46
26.26
19.18
7.13
-6.90
-19.09
-26.12
-26.29
-19.86
-8.59
4.93
17.91
27.70
32.13
29.70
20.07
4.52
-14.03
-31.42
-43.21
-45.97
-38.42
-22.01
-0.73
19.91
34.47
39.14
32.72
16.85
-4.64
-26.79
-44.86
-55.46
-57.25
-51.12
-39.76
-26.71
-15.28
-7.75
-4.87
-6.06
-9.96
-15.03
-20.09
-24.53
-28.15
-31.03
-33.30
-35.16
-36.82
-38.50
-40.34
-42.24
-43.87
-44.70
-44.29
-42.58
-40.11
-37.86
-36.90
-37.86
-40.47
-43.53
-45.30
-44.27
-39.84
-32.51
-23.62
-14.68
-6.61
0.69
8.26
17.48
29.44
44.38
61.58
79.57
96.29
109.30
116.11
114.58
103.69
84.24
59.08
32.45
8.61
-9.67
-22.03
-30.11
-36.38
-42.63
-49.10
-54.82
-58.49
-59.52
-58.34
-56.07
-53.74
-51.55
-48.62
-43.26
-33.53
-18.14
2.95
28.12
54.21
77.14
92.83
98.42
93.09
78.24
56.99
33.20
10.41
-8.91
-23.53
-33.37
-39.06
-41.56
-41.73
-40.10
-36.81
-31.72
-24.73
-15.93
-5.79
4.96
15.46
25.01
33.04
39.11
42.67
43.13
40.14
33.97
25.67
16.93
9.33
3.73
-0.09
-3.15
-6.61
-11.09
-16.49
-22.16
-27.47
-32.01
-35.44
-36.99
-34.99
-27.23
-11.94
10.90
38.77
66.99
90.08
103.70
106.02
98.15
83.30
65.21
46.88
29.94
14.81
1.37
-10.51
-20.90
-30.01
-38.39
-46.82
-55.81
-65.24
-74.08
-80.74
-83.61
-81.68
-74.96
-64.31
-51.25
-37.57
-24.92
-14.44
-6.39
0.15
7.02
16.31
29.37
46.17
65.01
83.02
96.85
103.54
101.18
89.38
69.39
43.92
16.51
-9.19
-30.44
-45.90
-55.62
-60.59
-62.02
-61.00
-58.49
-55.72
-54.16
-55.02
-58.41
-62.59
-64.24
-59.55
-45.93
-23.34
5.33
35.05
60.44
77.46
84.43
82.03
72.41
58.26
41.89
25.05
8.98
-5.48
-17.80
-27.86
-35.86
-42.08
-46.64
-49.22
-49.30
-46.53
-41.38
-35.41
-30.84
-29.47
-31.47
-35.02
-37.00
-34.76
-27.66
-17.67
-8.46
-3.40
-3.80
-8.38
-14.22
-18.58
-20.30
-20.03
-19.36
-19.42
-20.17
-20.54
-19.32
-16.05
-11.31
-6.49
-2.97
-1.64
-2.52
-4.87
-7.70
-10.12
-11.69
-12.41
-12.63
-12.71
-12.82
-12.80
-12.20
-10.53
-7.46
-3.04
2.26
7.72
12.58
16.33
18.83
20.30
21.13
21.64
22.09
22.47
22.72
22.74
22.37
21.52
20.11
18.22
16.07
14.06
12.57
11.78
11.51
11.35
10.91
10.01
8.84
7.77
7.06
6.74
6.54
6.12
5.34
4.37
3.56
3.27
3.61
4.40
5.29
5.90
5.94
5.26
3.82
1.67
-0.99
-3.78
-6.14
-7.50
-7.37
-5.65
-2.65
1.07
4.86
8.26
11.07
13.25
14.82
15.80
16.19
16.06
15.60
15.08
14.71
14.57
14.57
14.55
14.35
13.92
13.28
12.53
11.76
11.06
10.47
10.10
9.97
9.99
10.02
9.89
9.46
8.70
7.65
6.36
4.90
3.29
1.53
-0.35
-2.29
-4.14
-5.66
-6.65
-6.95
-6.67
-6.17
-6.00
-6.71
-8.66
-11.75
-15.39
-18.67
-20.62
-20.57
-18.42
-14.62
-10.01
-5.50
-1.72
1.07
3.07
4.62
6.06
7.53
8.92
9.99
10.52
10.42
9.74
8.67
7.44
6.32
5.46
4.92
4.64
4.47
4.27
3.98
3.62
3.22
2.81
2.37
1.85
1.22
0.46
-0.38
-1.24
-2.07
-2.83
-3.48
-4.00
-4.43
-4.89
-5.52
-6.45
-7.62
-8.79
-9.65
-9.89
-9.48
-8.64
-7.84
-7.57
-8.22
-9.94
-12.51
-15.43
-17.98
-19.41
-19.10
-16.80
-12.74
-7.53
-2.04
3.00
7.18
10.64
13.81
17.16
20.89
24.73
28.13
30.52
31.63
31.59
30.78
29.67
28.55
27.48
26.41
25.31
24.26
23.39
22.80
22.41
21.93
20.99
19.32
16.87
13.87
10.74
7.92
5.73
4.25
3.29
2.59
1.86
0.90
-0.37
-1.93
-3.74
-5.71
-7.67
-9.46
-10.93
-12.10
-13.08
-14.07
-15.22
-16.58
-18.19
-20.05
-22.22
-24.66
-27.15
-29.13
-29.82
-28.48
-24.82
-19.18
-12.47
-5.83
-0.23
3.93
6.78
8.76
10.31
11.62
12.63
13.20
13.28
13.01
12.62
12.27
11.96
11.56
10.94
10.13
9.28
8.55
8.02
7.59
7.09
6.37
5.44
4.44
3.49
2.58
1.61
0.42
-1.05
-2.75
-4.51
-6.08
-7.27
-7.95
-8.17
-8.11
-8.03
-8.15
-8.61
-9.36
-10.24
-11.16
-12.11
-13.17
-14.42
-15.86
-17.38
-18.95
-20.70
-22.84
-25.47
-28.26
-30.38
-30.80
-28.75
-24.14
-17.69
-10.60
-4.04
1.34
5.51
8.93
12.08
15.17
18.07
20.47
22.13
23.06
23.48
23.69
23.87
24.09
24.31
24.49
24.71
25.04
25.52
26.05
26.42
26.41
25.84
24.74
23.19
21.42
19.56
17.76
16.13
14.74
13.53
12.32
10.89
9.10
6.98
4.78
2.81
1.37
0.53
0.11
-0.22
-0.88
-2.27
-4.63
-7.99
-12.08
-16.32
-19.93
-22.09
-22.17
-19.96
-15.74
-10.19
-4.20
1.39
6.01
9.39
11.56
12.69
13.00
12.64
11.80
10.71
9.64
8.90
8.62
8.81
9.16
9.37
9.16
8.50
7.60
6.76
6.28
6.27
6.66
7.22
7.72
7.92
7.71
7.02
5.88
4.38
2.67
1.00
-0.43
-1.52
-2.28
-2.85
-3.37
-3.93
-4.51
-5.09
-5.62
-6.14
-6.73
-7.49
-8.53
-9.98
-11.97
-14.40
-16.95
-18.92
-19.52
-18.15
-14.62
-9.41
-3.39
2.39
7.14
10.44
12.27
12.86
12.52
11.58
10.27
8.82
7.41
6.14
5.03
4.04
2.96
1.60
-0.25
-2.68
-5.48
-8.30
-10.66
-12.21
-12.82
-12.63
-12.00
-11.38
-11.31
-12.23
-14.38
-17.62
-21.31
-24.56
-26.51
-26.86
-25.93
-24.68
-24.06
-24.67
-26.47
-28.90
-31.32
-33.31
-34.86
-36.18
-37.53
-39.09
-40.93
-43.13
-45.73
-48.49
-50.78
-51.60
-49.80
-44.62
-36.02
-24.84
-12.44
-0.27
10.61
19.74
27.14
33.09
37.82
41.51
44.27
46.21
47.51
48.29
48.61
48.43
47.63
46.11
43.88
41.02
37.74
34.34
31.23
28.74
27.09
26.17
25.60
24.78
23.16
20.49
16.92
12.99
9.33
6.39
4.26
2.66
1.13
-0.68
-2.85
-5.14
-7.14
-8.56
-9.34
-9.81
-10.48
-11.85
-14.23
-17.62
-21.70
-25.88
-29.39
-31.45
-31.39
-28.90
-24.16
-17.81
-10.84
-4.29
1.08
4.95
7.46
9.05
10.15
11.08
11.92
12.60
13.09
13.36
13.48
13.51
13.44
13.15
12.55
11.65
10.61
9.72
9.27
9.33
9.72
10.04
9.90
9.03
7.50
5.62
3.75
2.16
0.96
0.01
-0.88
-1.93
-3.23
-4.81
-6.59
-8.38
-9.97
-11.13
-11.70
-11.68
-11.30
-11.02
-11.40
-12.95
-15.85
-19.72
-23.65
-26.36
-26.70
-24.01
-18.44
-10.89
-2.64
5.13
11.66
16.73
20.47
23.05
24.55
24.88
23.98
22.02
19.42
16.79
14.72
13.46
12.91
12.68
12.32
11.60
10.60
9.54
8.59
7.73
6.71
5.32
3.54
1.63
-0.06
-1.29
-2.08
-2.67
-3.29
-3.99
-4.63
-5.02
-5.08
-5.05
-5.23
-5.90
-7.06
-8.45
-9.69
-10.44
-10.58
-10.25
-9.84
-9.85
-10.77
-12.75
-15.56
-18.43
-20.21
-19.79
-16.52
-10.52
-2.71
5.52
12.82
18.29
21.73
23.44
24.00
23.88
23.30
22.32
20.88
19.03
16.95
14.92
13.18
11.84
10.90
10.20
9.58
8.91
8.18
7.50
7.00
6.76
6.68
6.53
6.01
4.90
3.22
1.20
-0.82
-2.50
-3.71
-4.51
-5.17
-6.02
-7.29
-9.07
-11.19
-13.28
-14.91
-15.74
-15.72
-15.04
-14.14
-13.43
-13.28
-13.92
-15.48
-17.94
-21.00
-23.97
-25.87
-25.69
-22.81
-17.35
-10.15
-2.45
4.53
10.03
13.85
16.20
17.44
17.88
17.69
16.95
15.72
14.14
12.38
10.70
9.38
8.64
8.58
9.08
9.86
10.59
10.97
10.84
10.26
9.38
8.43
7.52
6.66
5.76
4.68
3.33
1.72
-0.00
-1.65
-3.06
-4.13
-4.93
-5.50
-5.92
-6.19
-6.35
-6.62
-7.38
-9.07
-11.92
-15.65
-19.42
-22.00
-22.27
-19.71
-14.63
-8.06
-1.32
4.44
8.63
11.19
12.45
12.84
12.67
12.14
11.35
10.44
9.48
8.60
7.86
7.27
6.84
6.55
6.39
6.36
6.47
6.75
7.21
7.75
8.21
8.31
7.86
6.76
5.17
3.37
1.67
0.23
-1.04
-2.38
-4.01
-5.99
-8.14
-10.11
-11.58
-12.38
-12.58
-12.53
-12.68
-13.52
-15.36
-18.22
-21.75
-25.20
-27.71
-28.44
-26.91
-23.14
-17.65
-11.33
-5.14
0.20
4.31
7.16
8.94
9.83
9.96
9.43
8.39
7.10
5.89
5.02
4.53
4.28
4.03
3.59
2.98
2.37
1.96
1.93
2.25
2.80
3.39
3.77
3.79
3.41
2.73
1.99
1.48
1.34
1.58
1.99
2.28
2.15
1.46
0.18
-1.49
-3.22
-4.61
-5.46
-5.90
-6.48
-7.93
-10.76
-14.84
-19.26
-22.59
-23.47
-21.21
-16.07
-9.02
-1.36
5.83
11.84
16.29
19.00
19.86
18.93
16.51
13.19
9.77
6.97
5.27
4.75
5.13
5.94
6.69
7.12
7.23
7.22
7.35
7.72
8.23
8.57
8.40
7.58
6.18
4.54
3.02
1.86
1.11
0.59
0.09
-0.54
-1.29
-2.09
-2.87
-3.61
-4.33
-5.07
-5.85
-6.78
-8.03
-9.90
-12.63
-16.25
-20.32
-23.95
-26.01
-25.58
-22.29
-16.53
-9.25
-1.66
5.20
10.64
14.39
16.42
16.91
16.09
14.30
11.97
9.60
7.63
6.33
5.74
5.68
5.83
5.87
5.62
5.12
4.51
4.01
3.79
3.87
4.18
4.54
4.77
4.72
4.34
3.61
2.60
1.36
-0.04
-1.56
-3.14
-4.65
-5.98
-6.97
-7.59
-7.88
-7.98
-8.15
-8.70
-9.91
-11.93
-14.67
-17.67
-20.25
-21.52
-20.75
-17.65
-12.47
-5.99
0.77
6.92
11.82
15.23
17.18
17.87
17.53
16.41
14.76
12.81
10.85
9.10
7.72
6.79
6.25
6.04
6.09
6.35
6.80
7.36
7.91
8.26
8.26
7.84
7.00
5.87
4.51
2.96
1.22
-0.69
-2.68
-4.58
-6.20
-7.49
-8.50
-9.45
-10.50
-11.72
-13.06
-14.42
-15.74
-17.06
-18.39
-19.66
-20.57
-20.62
-19.18
-15.87
-10.64
-3.94
3.36
10.29
16.04
20.18
22.73
23.97
24.25
23.79
22.67
20.92
18.70
16.37
14.36
13.07
12.59
12.61
12.60
11.99
10.50
8.19
5.44
2.66
0.16
-2.01
-3.96
-5.88
-7.88
-9.96
-12.10
-14.30
-16.62
-19.11
-21.76
-24.41
-26.81
-28.69
-29.88
-30.36
-30.23
-29.73
-29.13
-28.75
-28.89
-29.76
-31.36
-33.42
-35.36
-36.36
-35.61
-32.61
-27.31
-20.24
-12.28
-4.46
2.39
7.80
11.67
14.10
15.21
15.14
14.07
12.31
10.40
8.91
8.29
8.64
9.67
10.78
11.37
11.01
9.71
7.83
5.95
4.64
4.14
4.27
4.47
3.96
2.08
-1.39
-6.07
-11.12
-15.53
-18.44
-19.45
-18.70
-16.75
-14.43
-12.61
-11.97
-12.91
-15.41
-18.98
-22.80
-25.85
-27.11
-25.84
-21.75
-15.14
-6.91
1.73
9.55
15.73
20.00
22.68
24.30
25.23
25.51
24.88
23.12
20.30
16.92
13.69
11.28
10.00
9.79
10.28
11.01
11.60
11.84
11.76
11.53
11.43
11.66
12.29
13.21
14.21
15.13
15.87
16.54
17.29
18.32
19.66
21.17
22.51
23.27
23.04
21.61
19.08
15.90
12.84
10.84
10.77
13.22
18.26
25.47
33.94
42.54
50.23
56.34
60.66
63.51
65.43
66.98
68.48
70.00
71.38
72.31
72.55
71.89
70.27
67.77
64.64
61.29
58.17
55.63
53.71
52.24
50.90
49.45
47.89
46.34
44.97
43.73
42.36
40.49
37.92
34.71
31.21
27.77
24.55
21.42
18.10
14.31
9.90
4.83
-0.91
-7.22
-13.83
-20.12
-25.22
-28.23
-28.66
-26.67
-23.05
-18.91
-15.25
-12.58
-11.03
-10.41
-10.54
-11.32
-12.74
-14.70
-17.00
-19.43
-21.78
-24.09
-26.58
-29.55
-33.17
-37.27
-41.37
-44.85
-47.22
-48.36
-48.62
-48.57
-48.76
-49.45
-50.59
-51.93
-53.16
-54.10
-54.68
-54.92
-54.82
-54.47
-54.01
-53.73
-53.92
-54.69
-55.98
-57.49
-58.95
-60.20
-61.36
-62.51
-63.56
-64.03
-63.11
-60.06
-54.52
-46.87
-38.11
-29.46
-21.90
-15.84
-11.03
-6.95
-3.17
0.36
3.32
5.28
5.94
5.37
3.97
2.45
1.58
2.00
4.01
7.34
11.19
14.53
16.52
17.00
16.53
16.13
16.67
18.30
20.37
21.72
21.40
19.14
15.60
12.03
9.75
9.42
10.81
12.73
13.57
11.95
7.34
0.38
-7.27
-13.63
-17.10
-17.02
-13.82
-8.64
-2.92
1.85
4.36
3.75
-0.03
-5.66
-10.50
-11.45
-6.29
4.90
19.40
32.79
40.77
41.03
34.07
22.63
10.19
-0.61
-8.72
-14.50
-18.75
-21.89
-23.58
-23.07
-19.76
-13.91
-6.70
0.06
4.66
6.18
4.91
2.17
-0.34
-1.36
-0.62
1.14
2.61
2.70
1.07
-1.73
-4.63
-6.65
-7.33
-6.96
-6.21
-5.85
-6.33
-7.71
-9.76
-12.17
-14.57
-16.54
-17.52
-16.99
-14.62
-10.51
-5.19
0.49
5.74
10.05
13.26
15.48
16.93
17.79
18.23
18.42
18.63
19.15
20.16
21.72
23.69
25.89
28.13
30.39
32.69
35.09
37.53
39.86
41.80
43.03
43.24
42.16
39.59
35.49
29.94
23.19
15.59
7.58
-0.48
-8.41
-16.25
-24.27
-32.79
-42.02
-51.84
-61.76
-70.93
-78.48
-83.82
-86.79
-87.75
-87.20
-85.38
-82.08
-76.68
-68.67
-58.15
-46.17
-34.37
-24.37
-17.06
-12.22
-8.67
-4.89
0.27
7.09
14.94
22.71
29.24
33.91
36.77
38.52
40.19
42.68
46.27
50.50
54.30
56.54
56.64
54.90
52.51
50.87
50.86
52.43
54.53
55.57
54.09
49.15
40.42
28.04
12.75
-3.81
-18.87
-28.99
-31.26
-24.98
-12.53
1.19
10.74
12.80
7.73
-0.81
-8.08
-10.78
-8.64
-4.06
-0.14
1.31
0.61
-0.49
-0.33
1.41
3.65
4.72
3.44
-0.19
-5.14
-10.03
-13.85
-16.22
-17.11
-16.44
-14.01
-9.87
-4.90
-1.08
-1.01
-6.69
-18.24
-33.36
-48.10
-58.43
-61.98
-58.99
-51.89
-43.75
-36.67
-31.08
-26.16
-20.94
-15.26
-9.91
-6.07
-4.51
-5.13
-7.17
-9.69
-12.19
-14.77
-17.79
-21.44
-25.44
-29.19
-32.12
-34.19
-35.88
-37.89
-40.51
-43.44
-45.84
-46.99
-46.81
-46.09
-46.18
-48.22
-52.53
-58.51
-65.07
-71.20
-76.51
-81.06
-84.96
-88.01
-89.64
-89.35
-87.28
-84.61
-83.36
-85.49
-91.61
-99.97
-106.36
-105.36
-92.42
-66.14
-29.22
12.15
50.43
79.33
95.72
100.15
95.94
87.65
79.45
74.34
73.85
78.10
86.22
96.58
107.26
116.48
122.95
126.04
125.79
122.68
117.53
111.22
104.66
98.48
92.97
88.02
83.21
78.06
72.26
65.84
59.16
52.74
46.97
41.98
37.53
33.14
28.27
22.63
16.13
9.01
1.62
-5.60
-12.32
-18.32
-23.54
-28.09
-32.15
-35.95
-39.72
-43.65
-47.90
-52.53
-57.46
-62.26
-66.05
-67.65
-65.94
-60.39
-51.39
-40.23
-28.61
-18.03
-9.22
-2.04
4.10
9.73
14.81
18.72
20.54
19.68
16.30
11.45
6.77
3.95
4.03
7.05
11.95
17.10
20.90
22.36
21.35
18.38
14.32
10.06
6.40
4.06
3.65
5.50
9.38
14.40
19.13
22.10
22.39
19.98
15.66
10.68
6.25
3.09
1.39
0.95
1.32
1.97
2.37
2.00
0.59
-1.67
-4.03
-5.28
-4.24
-0.22
6.57
15.10
23.92
31.73
37.80
42.01
44.60
45.90
46.09
45.21
43.38
40.86
38.06
35.45
33.31
31.80
30.90
30.46
30.30
30.21
30.02
29.71
29.34
29.10
29.06
29.05
28.58
26.94
23.47
17.78
9.96
0.40
-10.41
-22.04
-34.10
-46.08
-57.21
-66.53
-73.20
-76.77
-77.24
-74.95
-70.23
-63.34
-54.71
-45.35
-37.09
-32.21
-32.59
-38.84
-49.85
-63.15
-75.69
-84.83
-88.88
-87.19
-80.02
-68.38
-53.86
-38.49
-24.37
-13.14
-5.44
-0.78
2.21
5.08
8.91
13.92
19.53
24.81
28.88
31.30
32.19
32.00
31.27
30.45
29.77
29.39
29.43
30.03
31.25
32.93
34.68
36.01
36.59
36.39
35.68
34.87
34.25
33.83
33.38
32.61
31.31
29.46
27.21
24.78
22.38
20.16
18.18
16.43
14.86
13.37
11.83
10.14
8.24
6.18
4.04
1.97
-0.01
-1.97
-4.08
-6.52
-9.42
-12.86
-16.85
-21.50
-26.94
-33.26
-40.43
-48.19
-56.13
-63.85
-71.09
-77.72
-83.56
-88.25
-91.18
-91.67
-89.36
-84.43
-77.57
-69.75
-61.81
-54.26
-47.17
-40.41
-33.80
-27.31
-21.03
-15.08
-9.61
-4.70
-0.43
3.18
6.11
8.38
10.06
11.18
11.77
11.89
11.60
11.01
10.22
9.29
8.23
7.09
6.02
5.35
5.55
7.06
10.06
14.32
19.10
23.43
26.46
27.71
27.30
25.83
24.09
22.71
21.88
21.40
20.86
20.03
18.95
17.92
17.24
16.99
17.02
17.03
16.82
16.33
15.68
15.01
14.38
13.74
13.01
12.12
11.11
10.02
8.92
7.78
6.56
5.22
3.83
2.54
1.55
0.99
0.88
1.10
1.43
1.63
1.50
0.88
-0.25
-1.82
-3.63
-5.30
-6.31
-6.12
-4.41
-1.26
2.81
7.04
10.67
13.22
14.58
14.90
14.44
13.50
12.30
11.01
9.70
8.38
7.09
5.87
4.82
4.03
3.53
3.23
2.97
2.68
2.42
2.44
2.98
4.16
5.78
7.45
8.70
9.25
9.12
8.57
7.98
7.62
7.50
7.42
7.01
5.93
4.10
1.78
-0.59
-2.54
-3.88
-4.78
-5.69
-7.02
-8.97
-11.33
-13.67
-15.42
-16.18
-15.83
-14.48
-12.48
-10.25
-8.21
-6.69
-5.80
-5.48
-5.57
-5.88
-6.29
-6.71
-7.12
-7.41
-7.48
-7.21
-6.48
-5.29
-3.65
-1.73
0.26
2.04
3.37
4.08
4.24
4.06
3.95
4.22
4.98
6.04
6.95
7.19
6.46
4.87
2.93
1.36
0.74
1.20
2.43
3.77
4.62
4.65
3.88
2.55
0.95
-0.63
-1.89
-2.46
-2.00
-0.27
2.66
6.40
10.34
13.83
16.41
17.82
17.97
16.94
14.88
12.11
9.02
6.10
3.77
2.29
1.68
1.78
2.29
2.85
3.21
3.25
3.05
2.78
2.62
2.55
2.39
1.87
0.80
-0.81
-2.68
-4.41
-5.65
-6.23
-6.23
-5.90
-5.58
-5.61
-6.23
-7.58
-9.60
-12.00
-14.28
-15.81
-16.03
-14.65
-11.77
-7.80
-3.38
0.93
4.75
7.90
10.33
12.08
13.20
13.71
13.68
13.18
12.25
11.00
9.57
8.22
7.19
6.64
6.47
6.43
6.24
5.76
5.13
4.62
4.38
4.35
4.16
3.47
2.13
0.41
-1.23
-2.33
-2.70
-2.57
-2.41
-2.64
-3.55
-5.15
-7.31
-9.80
-12.36
-14.71
-16.44
-17.08
-16.22
-13.69
-9.73
-5.05
-0.56
2.95
5.11
6.13
6.56
6.94
7.51
8.09
8.30
7.80
6.59
4.93
3.30
2.12
1.62
1.73
2.20
2.64
2.69
2.15
1.05
-0.36
-1.79
-3.09
-4.32
-5.71
-7.48
-9.61
-11.78
-13.53
-14.52
-14.69
-14.30
-13.76
-13.45
-13.58
-14.21
-15.38
-17.09
-19.20
-21.25
-22.48
-21.94
-18.96
-13.51
-6.32
1.27
7.91
12.72
15.62
17.12
17.90
18.44
18.73
18.45
17.33
15.38
12.98
10.68
9.01
8.18
8.09
8.39
8.58
8.30
7.40
6.02
4.53
3.33
2.63
2.32
2.02
1.34
0.01
-1.93
-4.21
-6.39
-8.08
-8.99
-9.00
-8.23
-7.01
-5.88
-5.44
-6.12
-7.96
-10.44
-12.63
-13.50
-12.34
-8.98
-3.87
2.08
7.84
12.62
15.98
17.96
18.93
19.29
19.40
19.36
19.20
18.86
18.35
17.74
17.14
16.60
16.15
15.71
15.10
14.17
12.80
11.03
9.00
6.95
5.10
3.55
2.25
0.97
-0.49
-2.27
-4.32
-6.41
-8.25
-9.59
-10.35
-10.63
-10.77
-11.23
-12.46
-14.67
-17.71
-21.02
-23.70
-24.82
-23.71
-20.20
-14.78
-8.37
-1.98
3.54
7.80
10.84
12.94
14.34
15.12
15.17
14.40
12.93
11.15
9.57
8.60
8.33
8.51
8.72
8.58
8.00
7.11
6.18
5.41
4.80
4.18
3.31
2.05
0.37
-1.63
-3.79
-5.99
-8.17
-10.33
-12.43
-14.36
-15.93
-16.87
-17.02
-16.48
-15.68
-15.34
-16.16
-18.45
-21.91
-25.66
-28.50
-29.35
-27.62
-23.37
-17.21
-10.11
-2.99
3.39
8.57
12.32
14.63
15.59
15.46
14.56
13.30
12.14
11.40
11.26
11.61
12.16
12.47
12.19
11.14
9.45
7.54
5.88
4.85
4.57
4.84
5.32
5.67
5.64
5.16
4.24
2.97
1.43
-0.22
-1.77
-3.01
-3.77
-4.09
-4.16
-4.36
-5.04
-6.50
-8.92
-12.25
-16.15
-19.98
-22.83
-23.78
-22.20
-18.02
-11.80
-4.53
2.72
9.12
14.25
18.06
20.69
22.29
22.92
22.63
21.47
19.59
17.20
14.55
11.83
9.17
6.63
4.27
2.23
0.69
-0.15
-0.25
0.25
1.04
1.83
2.44
2.86
3.18
3.44
3.61
3.55
3.15
2.42
1.53
0.71
0.19
0.13
0.59
1.52
2.78
4.15
5.34
6.00
5.80
4.42
1.72
-2.12
-6.47
-10.25
-12.19
-11.20
-6.80
0.62
9.92
19.62
28.32
35.12
39.70
42.21
43.01
42.51
41.07
39.03
36.71
34.41
32.42
30.91
29.97
29.55
29.42
29.24
28.62
27.27
25.10
22.31
19.30
16.49
14.09
12.02
9.98
7.59
4.58
0.99
-2.89
-6.69
-10.13
-13.07
-15.49
-17.36
-18.62
-19.21
-19.20
-18.84
-18.54
-18.66
-19.34
-20.55
-22.13
-24.04
-26.24
-28.65
-30.86
-32.12
-31.62
-28.85
-24.03
-18.07
-12.25
-7.69
-4.93
-3.87
-4.01
-4.90
-6.34
-8.47
-11.48
-15.45
-20.14
-25.02
-29.39
-32.62
-34.36
-34.71
-34.16
-33.46
-33.29
-33.93
-35.21
-36.53
-37.26
-36.97
-35.67
-33.66
-31.35
-28.90
-26.20
-22.82
-18.32
-12.42
-5.09
3.37
12.55
21.92
30.89
38.88
45.27
49.59
51.61
51.48
49.59
46.56
43.00
39.50
36.51
34.33
33.05
32.45
32.05
31.25
29.57
26.91
23.51
19.94
16.68
14.05
12.02
10.38
8.89
7.45
6.06
4.74
3.43
1.86
-0.30
-3.32
-7.20
-11.61
-15.92
-19.43
-21.60
-22.29
-21.80
-20.63
-19.35
-18.17
-17.03
-15.63
-13.72
-11.40
-9.05
-7.25
-6.44
-6.77
-7.96
-9.50
-10.85
-11.58
-11.57
-10.94
-10.04
-9.32
-9.15
-9.64
-10.57
-11.38
-11.40
-10.16
-7.61
-4.11
-0.31
3.21
6.09
8.18
9.46
9.93
9.54
8.34
6.56
4.61
2.96
1.89
1.41
1.30
1.31
1.39
1.79
2.89
4.96
7.92
11.35
14.57
17.03
18.53
19.29
19.88
20.92
22.81
25.64
29.14
32.69
35.29
35.61
32.26
24.34
12.10
-2.64
-16.73
-26.76
-30.25
-26.69
-17.76
-6.47
4.10
11.98
16.55
18.08
17.03
13.74
8.85
3.82
0.96
2.52
9.33
19.87
30.46
36.81
36.09
28.34
16.28
3.93
-5.39
-10.28
-11.29
-10.01
-7.85
-5.56
-3.31
-1.21
0.52
1.61
2.06
2.40
3.52
6.20
10.42
15.08
18.11
17.32
11.42
0.90
-11.92
-23.58
-30.90
-32.20
-27.84
-19.75
-10.47
-2.16
3.78
6.61
5.94
1.50
-6.52
-17.17
-28.65
-38.69
-45.29
-47.44
-45.25
-39.68
-31.72
-21.90
-10.34
2.58
15.42
25.59
30.12
27.17
17.31
3.73
-8.86
-16.33
-16.80
-11.15
-2.04
7.47
15.14
19.73
20.48
16.75
8.10
-4.99
-20.63
-35.73
-47.01
-52.30
-51.29
-45.50
-37.38
-29.35
-23.16
-19.64
-18.85
-20.33
-23.22
-26.55
-29.42
-31.23
-31.86
-31.76
-31.71
-32.31
-33.28
-32.94
-28.64
-17.87
0.29
24.15
49.51
70.96
83.85
85.97
78.09
63.21
45.00
26.51
9.52
-5.18
-17.12
-25.94
-31.37
-33.61
-33.54
-32.53
-32.00
-33.09
-36.41
-41.96
-49.24
-57.49
-65.82
-73.36
-79.11
-81.90
-80.58
-74.13
-62.23
-45.59
-25.96
-5.81
12.50
27.35
38.24
45.56
50.05
52.32
52.72
51.63
49.74
48.11
47.97
50.06
54.38
60.14
66.06
70.85
73.67
74.25
72.69
69.17
63.55
55.31
43.72
28.45
9.98
-10.06
-29.25
-45.09
-55.81
-61.01
-61.58
-59.24
-55.70
-52.10
-48.71
-45.18
-40.98
-35.71
-29.33
-22.09
-14.30
-6.17
2.20
10.79
19.55
28.32
36.89
45.16
53.05
60.60
67.76
74.33
80.00
84.45
87.52
89.26
89.89
89.70
89.00
88.05
87.06
86.11
85.03
83.37
80.50
75.98
69.88
62.82
55.71
49.35
43.94
39.00
33.58
26.86
18.51
8.97
-0.73
-9.32
-15.75
-19.34
-20.07
-18.47
-15.52
-12.36
-10.06
-9.14
-9.45
-10.03
-9.31
-5.76
1.45
11.72
22.95
32.13
36.50
34.67
27.10
15.83
3.42
-8.19
-18.34
-27.56
-36.92
-47.35
-59.15
-72.02
-85.36
-98.51
-110.76
-121.54
-130.37
-137.14
-142.25
-146.58
-151.29
-157.45
-165.60
-175.55
-186.32
-196.38
-203.95
-207.46
-205.75
-198.38
-185.64
-168.41
-148.01
-125.84
-103.16
-80.81
-59.40
-39.39
-21.48
-6.71
3.53
7.94
5.96
-1.71
-12.94
-24.59
-33.31
-36.53
-33.06
-23.34
-9.05
7.47
23.86
38.31
49.81
58.18
63.98
68.34
72.60
78.10
85.75
95.68
107.15
118.79
129.10
137.04
142.38
145.59
147.44
148.48
148.69
147.65
144.94
140.61
135.26
129.91
125.49
122.48
120.97
120.56
120.34
118.55
112.44
98.86
75.44
42.12
2.02
-39.12
-74.90
-100.62
-115.04
-120.26
-120.14
-118.14
-115.84
-113.00
-108.78
-103.12
-97.27
-93.05
-91.65
-92.64
-94.02
-93.28
-88.68
-80.13
-69.12
-57.84
-48.22
-41.06
-35.98
-31.78
-27.14
-21.15
-13.68
-5.19
3.51
11.73
19.17
26.03
32.84
40.13
48.15
56.61
64.89
72.23
77.97
81.75
83.50
83.48
82.08
79.82
77.06
73.97
70.42
66.22
61.30
55.86
50.36
45.30
40.94
37.15
33.48
29.40
24.63
19.22
13.61
8.44
4.28
1.49
0.11
-0.10
0.43
1.22
1.89
2.21
2.17
1.92
1.77
1.96
2.69
3.98
5.65
7.39
8.97
10.41
11.88
13.59
15.56
17.48
18.87
19.32
18.82
17.80
17.05
17.45
19.61
23.63
29.14
35.25
40.90
44.94
46.46
44.94
40.32
33.06
24.13
15.01
7.40
2.64
1.03
1.31
0.85
-3.47
-13.87
-30.60
-51.84
-74.36
-94.88
-111.05
-121.77
-126.85
-126.48
-121.07
-111.45
-99.09
-86.10
-74.62
-66.16
-61.09
-58.65
-57.21
-54.89
-50.17
-42.46
-32.34
-21.52
-12.18
-6.15
-4.04
-4.90
-6.71
-7.40
-5.88
-2.45
1.47
4.43
5.66
5.51
5.05
5.50
7.64
11.53
16.63
21.94
26.32
28.52
27.54
22.91
15.12
5.65
-3.35
-9.78
-12.46
-11.36
-7.59
-2.69
1.95
5.48
7.47
7.73
6.11
2.63
-2.37
-8.04
-13.21
-16.75
-18.02
-17.10
-14.81
-12.35
-10.90
-11.05
-12.37
-13.40
-12.01
-6.20
4.97
20.72
38.44
54.26
64.40
66.53
60.73
49.57
37.07
27.08
21.76
20.98
22.79
24.72
25.19
24.08
22.52
21.89
23.04
25.89
29.64
32.98
34.41
32.57
26.64
16.99
5.49
-4.89
-11.09
-11.37
-6.13
2.31
10.82
16.91
19.45
18.58
15.01
9.34
1.98
-6.53
-15.13
-22.15
-25.90
-25.48
-21.30
-15.24
-9.88
-7.56
-9.39
-14.85
-22.03
-28.57
-32.61
-33.57
-32.13
-29.69
-27.57
-26.39
-26.04
-25.90
-25.46
-24.56
-23.41
-22.33
-21.55
-21.02
-20.54
-19.90
-19.01
-17.94
-16.82
-15.77
-14.86
-14.11
-13.42
-12.72
-11.91
-10.92
-9.80
-8.73
-7.95
-7.54
-7.45
-7.43
-7.19
-6.63
-5.91
-5.39
-5.44
-6.13
-7.18
-8.11
-8.42
-7.84
-6.43
-4.51
-2.45
-0.53
1.16
2.64
3.92
4.99
5.78
6.30
6.64
6.97
7.48
8.25
9.23
10.24
11.11
11.75
12.17
12.46
12.78
13.18
13.69
14.30
14.94
15.46
15.71
15.52
14.79
13.60
12.16
10.76
9.71
9.19
9.21
9.62
10.10
10.27
9.73
8.27
5.93
3.05
0.17
-2.13
-3.42
-3.48
-2.43
-0.58
1.64
3.83
5.69
7.07
7.88
8.13
7.75
6.74
5.20
3.36
1.53
0.17
-0.38
0.00
1.24
2.94
4.64
5.90
6.43
6.18
5.32
4.11
2.80
1.55
0.36
-0.83
-2.05
-3.25
-4.27
-4.93
-5.09
-4.75
-4.03
-3.11
-2.23
-1.59
-1.33
-1.49
-2.10
-3.11
-4.46
-5.95
-7.36
-8.32
-8.47
-7.53
-5.47
-2.54
0.77
3.90
6.49
8.48
10.14
11.85
13.87
16.18
18.43
20.15
20.95
20.70
19.59
18.00
16.37
14.97
13.87
12.94
12.05
11.12
10.20
9.42
8.82
8.28
7.49
6.15
4.06
1.31
-1.76
-4.64
-6.99
-8.61
-9.51
-9.79
-9.47
-8.65
-7.48
-6.33
-5.73
-6.13
-7.59
-9.68
-11.60
-12.53
-12.00
-10.17
-7.62
-5.07
-3.00
-1.48
-0.27
0.95
2.35
3.96
5.64
7.29
8.83
10.21
11.35
12.11
12.35
11.91
10.76
8.91
6.49
3.77
1.17
-0.86
-2.00
-2.13
-1.47
-0.40
0.62
1.33
1.69
1.83
1.87
1.81
1.51
0.74
-0.63
-2.54
-4.65
-6.55
-7.78
-8.24
-8.14
-7.93
-8.09
-8.78
-9.76
-10.49
-10.45
-9.37
-7.40
-4.99
-2.61
-0.56
1.08
2.41
3.57
4.61
5.52
6.21
6.67
6.92
7.09
7.36
7.91
8.86
10.22
11.87
13.55
15.04
16.16
16.76
16.85
16.57
16.19
16.17
16.89
18.52
20.92
23.63
26.09
27.87
28.88
29.36
29.79
30.62
32.14
34.37
36.93
39.19
40.35
39.55
36.22
30.14
21.67
11.55
0.79
-9.67
-19.08
-27.11
-33.76
-39.30
-43.96
-47.83
-50.65
-51.86
-50.88
-47.52
-42.29
-36.51
-31.94
-30.07
-31.52
-35.72
-41.16
-46.00
-48.79
-48.82
-46.18
-41.28
-34.62
-26.62
-18.04
-10.26
-5.30
-5.19
-11.00
-22.07
-35.90
-48.95
-57.94
-60.94
-57.82
-49.91
-39.16
-27.29
-15.44
-4.20
6.18
15.55
23.80
30.81
36.45
40.53
42.87
43.43
42.55
40.92
39.43
38.77
39.18
40.53
42.43
44.46
46.19
47.12
46.67
44.32
39.94
33.94
27.25
21.01
16.22
13.41
12.56
13.15
14.28
14.85
13.80
10.46
4.81
-2.36
-9.78
-16.13
-20.64
-23.34
-24.78
-25.69
-26.66
-28.07
-30.25
-33.37
-37.35
-41.50
-44.51
-44.92
-41.79
-35.41
-27.28
-19.51
-13.80
-10.63
-9.13
-7.64
-4.66
0.53
7.72
16.11
24.80
33.03
40.25
45.90
49.37
50.10
47.92
43.48
38.18
33.91
32.47
34.90
41.19
50.32
60.83
71.17
80.15
86.87
90.61
90.81
87.36
80.79
72.25
62.86
52.98
41.84
27.81
9.36
-13.89
-40.55
-67.73
-91.68
-108.78
-116.33
-112.96
-98.98
-76.44
-49.15
-22.19
-0.92
10.30
9.35
-3.15
-24.06
-49.00
-73.73
-95.26
-112.37
-125.05
-133.62
-137.88
-136.96
-129.94
-116.77
-98.85
-78.54
-58.17
-39.03
-21.06
-3.68
13.09
28.00
38.90
43.99
43.08
38.09
32.36
29.21
30.58
36.31
44.39
51.74
55.43
53.53
45.62
32.96
17.99
3.83
-6.59
-11.30
-9.74
-2.86
7.36
18.51
28.59
36.41
41.63
44.28
44.23
41.06
34.21
23.83
11.21
-1.20
-10.54
-14.71
-13.24
-7.37
0.56
8.16
13.64
16.07
15.08
10.77
3.66
-5.02
-13.39
-19.24
-20.81
-17.46
-9.87
0.16
10.32
18.39
22.67
22.33
17.59
9.78
1.20
-5.50
-7.97
-5.02
3.03
14.46
26.52
36.16
40.78
39.00
31.11
19.29
7.13
-1.51
-3.68
1.53
12.80
27.25
41.51
52.87
59.78
61.84
59.56
54.07
46.94
39.95
34.76
32.45
33.14
36.17
40.49
44.88
48.17
48.96
45.46
35.86
19.18
-3.97
-31.07
-58.25
-81.68
-98.72
-108.70
-112.70
-112.68
-110.60
-107.75
-104.61
-101.11
-96.92
-91.77
-85.56
-78.29
-69.93
-60.32
-49.24
-36.53
-22.53
-8.07
5.62
17.26
26.05
31.88
35.25
36.98
37.78
38.02
37.77
36.90
35.25
32.72
29.34
25.27
20.81
16.29
11.97
8.04
4.50
1.30
-1.59
-4.22
-6.51
-8.42
-9.90
-10.89
-11.41
-11.52
-11.41
-11.30
-11.49
-12.18
-13.46
-15.17
-16.98
-18.40
-18.95
-18.30
-16.38
-13.51
-10.23
-7.21
-4.92
-3.52
-2.77
-2.24
-1.50
-0.31
1.23
2.81
4.08
4.84
5.14
5.24
5.49
6.11
7.16
8.46
9.79
10.98
12.00
12.91
13.71
14.37
14.75
14.76
14.44
13.97
13.56
13.30
13.21
13.18
13.18
13.28
13.65
14.42
15.55
16.83
17.92
18.52
18.46
17.84
16.92
16.09
15.70
15.96
16.82
17.95
18.90
19.15
18.37
16.53
13.89
10.98
8.47
6.97
6.85
8.10
10.33
12.83
14.93
16.14
16.33
15.73
14.69
13.52
12.40
11.32
10.18
8.91
7.49
5.93
4.22
2.32
0.18
-2.18
-4.67
-7.06
-9.02
-10.24
-10.53
-9.92
-8.67
-7.28
-6.36
-6.38
-7.49
-9.42
-11.50
-12.99
-13.37
-12.64
-11.30
-10.01
-9.31
-9.25
-9.48
-9.51
-9.05
-8.13
-7.02
-6.00
-5.25
-4.85
-4.93
-5.74
-7.50
-10.22
-13.57
-16.90
-19.49
-20.89
-21.04
-20.28
-19.11
-18.03
-17.30
-17.03
-17.13
-17.37
-17.52
-17.42
-17.06
-16.55
-16.09
-15.82
-15.63
-15.22
-14.17
-12.19
-9.38
-6.23
-3.41
-1.54
-0.82
-1.07
-1.78
-2.49
-2.97
-3.23
-3.39
-3.50
-3.41
-2.92
-1.92
-0.51
0.94
1.99
2.28
1.60
0.07
-2.02
-4.20
-6.06
-7.33
-8.03
-8.52
-9.31
-10.92
-13.56
-16.95
-20.35
-22.77
-23.30
-21.49
-17.55
-12.29
-6.82
-2.13
1.32
3.65
5.45
7.29
9.41
11.67
13.67
15.08
15.85
16.17
16.28
16.30
16.15
15.68
14.86
13.86
13.04
12.78
13.25
14.38
15.87
17.24
18.10
18.22
17.60
16.52
15.35
14.38
13.69
13.18
12.66
11.97
11.12
10.09
8.90
7.52
5.92
4.21
2.63
1.47
0.78
0.39
-0.28
-1.89
-4.91
-9.28
-14.24
-18.56
-20.81
-20.02
-15.92
-9.26
-1.37
6.22
12.38
16.64
19.13
20.27
20.46
19.95
18.79
17.14
15.24
13.41
11.94
10.92
10.20
9.45
8.41
6.85
4.90
2.89
1.27
0.44
0.45
1.03
1.61
1.63
0.80
-0.76
-2.65
-4.32
-5.46
-6.05
-6.35
-6.84
-7.92
-9.74
-12.16
-14.70
-16.79
-17.93
-17.84
-16.59
-14.54
-12.27
-10.49
-9.82
-10.66
-12.98
-16.14
-19.04
-20.38
-19.16
-15.02
-8.44
-0.56
7.32
14.16
19.43
23.13
25.54
27.01
27.78
27.86
27.22
25.85
23.86
21.55
19.28
17.40
16.08
15.27
14.72
14.07
13.03
11.52
9.71
7.90
6.38
5.21
4.21
3.08
1.56
-0.34
-2.49
-4.61
-6.52
-8.21
-9.77
-11.25
-12.60
-13.62
-14.13
-14.13
-13.92
-13.96
-14.71
-16.29
-18.34
-20.05
-20.50
-18.96
-15.22
-9.65
-3.07
3.55
9.38
13.89
16.82
18.11
17.89
16.37
13.99
11.30
8.82
6.90
5.59
4.75
4.19
3.74
3.37
3.13
3.05
3.09
3.14
3.02
2.52
1.52
0.03
-1.84
-3.82
-5.66
-7.18
-8.34
-9.22
-9.93
-10.49
-10.86
-10.97
-10.84
-10.60
-10.40
-10.32
-10.39
-10.70
-11.41
-12.86
-15.19
-18.20
-21.08
-22.61
-21.60
-17.45
-10.49
-1.84
6.91
14.42
19.94
23.43
25.39
26.36
26.63
26.20
24.97
22.94
20.39
17.77
15.54
13.87
12.72
11.81
10.91
9.91
8.87
7.92
7.23
6.80
6.56
6.28
5.69
4.61
3.03
1.13
-0.80
-2.53
-4.02
-5.45
-7.10
-9.14
-11.47
-13.79
-15.75
-17.22
-18.35
-19.58
-21.45
-24.27
-28.00
-32.00
-35.31
-36.75
-35.46
-31.19
-24.48
-16.45
-8.37
-1.33
4.13
7.93
10.29
11.49
11.77
11.29
10.21
8.76
7.24
5.90
4.94
4.49
4.51
4.93
5.59
6.31
6.94
7.37
7.51
7.41
7.10
6.59
5.90
5.00
3.84
2.45
0.97
-0.36
-1.34
-1.88
-2.18
-2.64
-3.62
-5.31
-7.54
-10.01
-12.55
-15.24
-18.42
-22.29
-26.53
-30.15
-31.71
-29.92
-24.30
-15.48
-5.10
4.93
13.01
18.41
21.28
22.37
22.53
22.38
22.18
21.92
21.50
20.88
20.06
19.09
17.98
16.71
15.27
13.68
12.04
10.45
9.01
7.81
6.92
6.39
6.12
5.90
5.34
4.04
1.80
-1.19
-4.43
-7.25
-9.12
-9.97
-10.19
-10.35
-10.98
-12.23
-14.04
-16.32
-19.00
-22.11
-25.32
-27.80
-28.29
-25.57
-19.20
-9.89
0.63
10.27
17.42
21.57
23.27
23.47
23.08
22.44
21.49
20.09
18.30
16.37
14.61
13.19
12.01
10.94
9.88
8.86
8.06
7.60
7.51
7.67
7.82
7.69
7.10
5.97
4.36
2.47
0.54
-1.20
-2.60
-3.66
-4.52
-5.34
-6.32
-7.60
-9.22
-11.08
-12.99
-14.70
-16.15
-17.50
-19.01
-20.87
-22.81
-24.05
-23.50
-20.22
-13.97
-5.42
4.08
12.95
19.97
24.58
26.90
27.41
26.62
24.91
22.64
20.16
17.95
16.40
15.66
15.44
15.06
13.75
11.08
7.14
2.69
-1.27
-3.96
-5.10
-5.00
-4.31
-3.65
-3.42
-3.75
-4.64
-6.00
-7.70
-9.43
-10.71
-11.03
-10.09
-8.02
-5.42
-3.19
-2.26
-3.21
-6.06
-10.24
-14.68
-18.14
-19.47
-18.00
-13.69
-7.21
0.28
7.50
13.29
17.01
18.51
18.21
16.80
15.02
13.46
12.35
11.55
10.76
9.75
8.56
7.47
6.85
6.93
7.57
8.37
8.85
8.70
7.92
6.73
5.43
4.18
2.95
1.65
0.19
-1.41
-3.09
-4.81
-6.61
-8.57
-10.66
-12.74
-14.55
-15.89
-16.60
-16.75
-16.58
-16.50
-16.88
-17.99
-19.74
-21.61
-22.75
-22.28
-19.75
-15.28
-9.59
-3.61
1.91
6.58
10.34
13.20
15.07
15.78
15.33
14.02
12.52
11.48
11.29
11.85
12.59
12.86
12.20
10.55
8.26
5.84
3.80
2.41
1.73
1.61
1.81
2.03
1.96
1.20
-0.68
-3.98
-8.68
-14.25
-19.63
-23.62
-25.17
-23.85
-20.01
-14.62
-8.99
-4.29
-1.43
-0.80
-2.32
-5.43
-9.17
-12.29
-13.61
-12.32
-8.30
-2.12
5.10
12.10
17.77
21.46
22.95
22.44
20.43
17.56
14.49
11.72
9.49
7.87
6.83
6.33
6.33
6.68
7.09
7.17
6.61
5.30
3.49
1.62
0.16
-0.65
-0.85
-0.67
-0.39
-0.11
0.20
0.65
1.23
1.74
1.82
1.14
-0.42
-2.67
-5.08
-7.02
-8.04
-8.10
-7.68
-7.55
-8.46
-10.59
-13.42
-15.79
-16.37
-14.32
-9.71
-3.58
2.54
7.28
10.08
11.19
11.34
11.12
10.65
9.62
7.74
5.06
2.11
-0.44
-2.10
-2.86
-3.09
-3.26
-3.65
-4.23
-4.73
-4.96
-4.92
-4.77
-4.77
-5.10
-5.75
-6.61
-7.53
-8.41
-9.29
-10.22
-11.21
-12.20
-13.01
-13.47
-13.57
-13.43
-13.33
-13.59
-14.41
-15.79
-17.53
-19.31
-20.64
-21.04
-20.04
-17.34
-12.92
-7.13
-0.67
5.66
11.10
15.25
18.02
19.60
20.24
20.09
19.19
17.57
15.44
13.23
11.46
10.55
10.50
10.91
11.14
10.63
9.23
7.26
5.34
4.00
3.48
3.54
3.67
3.32
2.20
0.40
-1.78
-3.97
-5.96
-7.74
-9.40
-11.03
-12.72
-14.44
-16.22
-18.12
-20.14
-22.11
-23.54
-23.72
-22.01
-18.19
-12.71
-6.50
-0.68
4.03
7.42
9.81
11.62
13.01
13.81
13.62
12.22
9.83
7.12
4.90
3.80
3.89
4.70
5.47
5.52
4.67
3.19
1.69
0.71
0.42
0.46
0.21
-0.90
-3.03
-5.86
-8.73
-11.04
-12.52
-13.32
-13.91
-14.71
-16.00
-17.81
-20.07
-22.73
-25.73
-28.79
-31.29
-32.26
-30.70
-25.97
-18.25
-8.55
1.50
10.31
16.90
21.20
23.85
25.81
27.73
29.68
31.19
31.60
30.54
28.19
25.30
22.80
21.34
20.93
21.03
20.79
19.65
17.60
15.09
12.81
11.14
9.96
8.78
6.97
4.22
0.60
-3.43
-7.34
-10.69
-13.31
-15.29
-16.85
-18.28
-19.84
-21.76
-24.16
-27.03
-30.15
-33.02
-34.83
-34.58
-31.42
-25.02
-15.88
-5.30
5.03
13.69
20.07
24.47
27.75
30.63
33.39
35.73
37.11
37.26
36.30
34.71
33.05
31.64
30.47
29.30
27.86
26.02
23.78
21.27
18.65
15.99
13.29
10.44
7.35
4.04
0.58
-2.78
-5.84
-8.47
-10.71
-12.69
-14.61
-16.59
-18.69
-20.85
-22.94
-24.89
-26.64
-28.33
-30.21
-32.65
-35.78
-39.30
-42.30
-43.45
-41.45
-35.60
-26.25
-14.69
-2.74
7.92
16.36
22.50
26.86
30.11
32.59
34.21
34.63
33.63
31.36
28.34
25.29
22.73
20.86
19.52
18.39
17.18
15.82
14.38
13.01
11.76
10.54
9.13
7.31
4.99
2.28
-0.52
-3.00
-4.82
-5.87
-6.30
-6.59
-7.25
-8.73
-11.09
-14.06
-17.17
-19.93
-22.07
-23.58
-24.67
-25.70
-27.05
-29.12
-32.12
-35.98
-40.22
-43.70
-45.04
-42.89
-36.60
-26.49
-13.91
-0.77
11.10
20.49
27.02
30.99
33.03
33.83
33.89
33.56
33.01
32.25
31.19
29.74
27.92
25.85
23.79
21.92
20.21
18.50
16.61
14.60
12.76
11.53
11.15
11.43
11.74
11.30
9.56
6.48
2.54
-1.47
-4.86
-7.22
-8.59
-9.32
-9.82
-10.47
-11.44
-12.74
-14.38
-16.28
-18.43
-20.70
-22.87
-24.60
-25.67
-26.14
-26.52
-27.68
-30.40
-34.83
-40.17
-44.60
-45.99
-42.61
-33.98
-21.19
-6.48
7.51
18.77
26.47
30.99
33.40
34.81
35.84
36.58
36.85
36.62
36.15
35.92
36.29
37.32
38.69
39.91
40.59
40.61
40.20
39.64
39.10
38.50
37.53
35.93
33.64
30.87
28.11
25.86
24.33
23.41
22.54
21.02
18.34
14.31
9.22
3.61
-1.95
-7.10
-11.75
-16.04
-20.25
-24.66
-29.50
-34.95
-41.00
-47.49
-54.10
-60.38
-65.98
-70.72
-74.67
-78.08
-81.22
-84.31
-87.52
-90.94
-94.67
-98.82
-103.33
-107.87
-111.87
-114.59
-115.39
-113.95
-110.43
-105.27
-98.94
-91.68
-83.26
-73.29
-61.53
-48.43
-35.37
-24.47
-17.99
-17.55
-23.52
-34.88
-49.80
-66.40
-83.63
-101.57
-121.16
-143.52
-169.10
-197.22
-225.91
-252.36
-273.54
-286.93
-291.16
-286.29
-273.77
-256.03
-235.87
-215.77
-197.43
-181.62
-168.35
-157.15
-147.33
-138.17
-128.91
-118.85
-107.36
-94.12
-79.10
-62.55
-44.85
-26.36
-7.20
12.72
33.54
55.16
76.95
97.74
115.91
129.89
138.60
141.88
140.49
135.73
128.95
120.97
111.97
101.77
90.47
79.01
69.27
63.69
64.33
72.25
87.08
107.49
131.86
158.91
187.72
217.43
246.57
272.89
293.78
307.06
311.83
308.73
299.63
286.92
272.73
258.66
245.67
234.51
225.83
220.21
217.82
218.26
220.49
223.12
224.85
224.82
222.75
218.78
213.26
206.44
198.41
189.13
178.61
167.10
155.15
143.56
133.10
124.26
117.04
110.89
104.86
97.93
89.42
79.21
67.79
56.00
44.67
34.34
25.13
16.83
9.15
1.89
-4.95
-11.21
-16.76
-21.62
-26.05
-30.37
-34.83
-39.45
-43.93
-47.82
-50.72
-52.46
-53.21
-53.38
-53.46
-53.82
-54.54
-55.44
-56.22
-56.59
-56.42
-55.74
-54.62
-53.18
-51.51
-49.80
-48.30
-47.27
-46.87
-46.96
-47.15
-46.94
-45.91
-43.94
-41.17
-37.87
-34.34
-30.75
-27.22
-23.86
-20.81
-18.13
-15.86
-13.89
-12.15
-10.66
-9.58
-9.19
-9.70
-11.05
-12.92
-14.81
-16.24
-17.02
-17.28
-17.40
-17.72
-18.47
-19.59
-20.85
-22.05
-23.09
-24.01
-24.95
-25.94
-26.94
-27.75
-28.16
-28.01
-27.37
-26.48
-25.75
-25.56
-26.11
-27.31
-28.83
-30.27
-31.36
-32.07
-32.45
-32.53
-32.22
-31.24
-29.44
-26.81
-23.71
-20.65
-18.13
-16.42
-15.56
-15.45
-16.02
-17.34
-19.50
-22.47
-25.94
-29.33
-32.07
-33.81
-34.65
-35.04
-35.61
-36.82
-38.76
-41.12
-43.43
-45.26
-46.40
-46.96
-47.24
-47.67
-48.64
-50.38
-52.85
-55.62
-57.88
-58.68
-57.25
-53.37
-47.53
-40.86
-34.75
-30.42
-28.62
-29.43
-32.27
-36.04
-39.28
-40.47
-38.35
-32.35
-22.78
-10.84
1.75
13.25
22.41
28.75
32.39
33.82
33.48
31.67
28.56
24.31
19.20
13.58
7.80
2.08
-3.63
-9.49
-15.75
-22.55
-29.84
-37.34
-44.62
-51.23
-56.81
-61.25
-64.66
-67.21
-69.07
-70.20
-70.37
-69.36
-67.11
-63.94
-60.40
-57.20
-54.94
-54.08
-54.95
-57.82
-62.73
-69.22
-76.01
-81.06
-82.05
-77.13
-65.69
-48.75
-28.58
-7.97
10.72
26.15
38.17
47.40
54.75
60.90
66.12
70.30
73.23
74.82
75.29
75.02
74.38
73.52
72.32
70.47
67.80
64.34
60.43
56.50
52.96
49.88
47.04
44.01
40.30
35.66
30.13
24.08
18.13
12.82
8.47
4.95
1.73
-1.99
-6.91
-13.38
-21.32
-30.14
-38.85
-46.26
-51.10
-52.26
-49.15
-41.86
-31.29
-18.93
-6.36
5.09
14.70
22.32
28.21
32.70
36.06
38.46
40.01
40.86
41.18
41.23
41.36
41.85
42.96
44.75
47.02
49.34
51.20
52.15
51.95
50.58
48.17
44.91
40.97
36.50
31.68
26.68
21.66
16.79
12.15
7.84
3.84
0.12
-3.47
-7.16
-11.18
-15.84
-21.39
-28.00
-35.57
-43.61
-51.16
-56.86
-59.34
-57.62
-51.50
-41.63
-29.32
-16.07
-3.22
8.38
18.36
26.72
33.69
39.45
44.12
47.68
50.03
51.09
50.89
49.63
47.59
45.13
42.51
39.96
37.66
35.75
34.43
33.82
33.96
34.74
35.86
36.94
37.59
37.55
36.71
35.10
32.88
30.17
27.10
23.77
20.30
16.90
13.82
11.27
9.27
7.58
5.73
3.10
-0.83
-6.27
-12.94
-20.02
-26.20
-30.02
-30.28
-26.37
-18.57
-7.77
4.80
18.03
31.26
44.26
57.01
69.42
81.22
91.94
101.12
108.44
113.81
117.41
119.57
120.72
121.31
121.68
122.05
122.48
122.99
123.57
124.21
124.84
125.16
124.61
122.52
118.35
111.83
102.93
91.63
77.66
60.55
40.00
16.39
-8.87
-33.57
-55.40
-72.78
-85.27
-93.64
-99.18
-103.15
-106.35
-109.20
-111.96
-115.00
-118.62
-122.69
-126.50
-128.76
-128.23
-124.19
-116.89
-107.41
-97.08
-86.90
-77.14
-67.40
-57.05
-45.79
-33.95
-22.44
-12.35
-4.48
0.90
4.05
5.56
6.01
5.81
5.19
4.25
3.15
2.12
1.42
1.27
1.87
3.37
5.87
9.36
13.46
17.37
19.93
19.92
16.53
9.61
-0.21
-11.74
-23.58
-34.46
-43.53
-50.45
-55.41
-59.06
-62.24
-65.74
-69.95
-74.69
-79.23
-82.60
-84.03
-83.19
-80.34
-76.11
-71.12
-65.69
-59.76
-53.02
-45.19
-36.27
-26.58
-16.62
-6.82
2.61
11.76
20.81
29.87
38.86
47.49
55.43
62.39
68.24
73.00
76.75
79.53
81.28
81.87
81.12
78.96
75.51
71.11
66.19
61.14
56.09
50.83
44.85
37.62
28.77
18.31
6.60
-5.70
-17.87
-29.30
-39.49
-48.26
-55.69
-62.09
-67.93
-73.59
-79.15
-84.19
-87.78
-88.59
-85.20
-76.52
-62.24
-43.31
-22.02
-1.74
13.99
22.57
23.34
17.84
9.25
1.09
-4.19
-5.98
-5.44
-4.63
-5.18
-7.58
-10.97
-13.75
-14.57
-13.08
-10.09
-7.21
-6.07
-7.58
-11.76
-17.85
-24.87
-32.16
-39.41
-46.58
-53.45
-59.43
-63.65
-65.36
-64.30
-60.97
-56.37
-51.65
-47.56
-44.25
-41.30
-38.07
-34.13
-29.44
-24.38
-19.46
-14.99
-10.96
-7.13
-3.21
0.85
4.82
8.35
11.13
13.07
14.26
14.87
14.98
14.60
13.71
12.29
10.49
8.60
7.02
6.18
6.43
7.89
10.40
13.49
16.49
18.80
20.00
20.04
19.10
17.55
15.68
13.64
11.41
8.85
5.75
1.87
-2.96
-8.72
-15.20
-21.84
-27.91
-32.55
-34.97
-34.59
-31.20
-25.00
-16.66
-7.24
2.08
10.24
16.56
20.83
23.18
23.96
23.50
22.10
20.08
17.77
15.49
13.54
12.00
10.84
9.91
9.11
8.42
7.86
7.48
7.19
6.89
6.41
5.69
4.77
3.80
2.90
2.14
1.43
0.67
-0.27
-1.38
-2.58
-3.79
-4.95
-6.11
-7.29
-8.39
-9.14
-9.12
-7.94
-5.40
-1.60
3.13
8.32
13.57
18.59
23.17
27.14
30.34
32.55
33.60
33.43
32.16
30.03
27.41
24.60
21.81
19.13
16.61
14.37
12.55
11.25
10.45
9.91
9.25
8.09
6.30
4.01
1.64
-0.39
-1.81
-2.67
-3.30
-4.15
-5.65
-8.22
-12.12
-17.49
-24.18
-31.60
-38.74
-44.26
-47.08
-46.72
-43.63
-39.02
-34.30
-30.42
-27.35
-24.17
-19.53
-12.40
-2.57
9.20
21.49
32.64
41.20
46.20
47.19
44.32
38.29
30.23
21.48
13.30
6.60
1.87
-0.80
-1.64
-1.07
0.24
1.46
1.67
0.04
-3.94
-10.30
-18.67
-28.35
-38.48
-48.04
-55.98
-61.30
-63.27
-61.64
-56.72
-49.27
-40.23
-30.49
-20.76
-11.54
-3.15
4.19
10.42
15.63
20.14
24.36
28.67
33.23
37.83
42.01
45.17
46.92
47.26
46.65
45.82
45.44
45.83
46.85
47.98
48.65
48.45
47.30
45.29
42.51
38.94
34.32
28.41
21.10
12.55
3.27
-6.12
-15.02
-23.08
-30.25
-36.81
-43.19
-49.82
-56.96
-64.63
-72.53
-80.19
-87.12
-92.98
-97.71
-101.47
-104.46
-106.85
-108.76
-110.33
-111.86
-113.86
-116.95
-121.59
-127.84
-135.24
-142.94
-149.90
-155.06
-157.41
-155.92
-149.49
-137.10
-118.06
-92.31
-60.59
-24.19
15.42
57.04
99.67
142.29
183.34
220.68
251.97
275.53
291.15
300.35
305.89
310.57
316.15
322.59
328.41
331.60
330.76
325.76
317.57
307.33
295.19
279.82
258.75
229.69
191.97
147.61
100.99
57.39
21.02
-6.45
-26.20
-41.18
-54.38
-67.39
-79.92
-90.42
-97.25
-99.53
-97.36
-91.23
-81.48
-68.15
-51.58
-33.12
-15.57
-2.61
2.44
-2.13
-15.82
-36.27
-60.32
-84.97
-107.65
-125.82
-136.45
-136.20
-122.66
-96.15
-60.86
-24.37
4.51
18.79
15.76
-2.40
-30.06
-60.68
-89.13
-112.73
-130.71
-142.75
-147.88
-144.40
-131.03
-108.46
-80.16
-51.81
-29.47
-17.32
-16.21
-23.61
-35.19
-46.89
-56.51
-63.98
-70.50
-76.99
-82.73
-85.15
-80.57
-65.85
-40.13
-5.82
31.51
64.48
86.14
92.27
82.77
61.50
34.71
8.81
-11.54
-24.05
-28.36
-25.11
-15.20
0.07
18.63
37.43
52.88
62.08
63.88
59.37
51.25
42.49
35.03
29.32
24.66
20.16
15.42
10.68
6.41
2.86
-0.13
-2.74
-4.80
-5.60
-4.23
-0.16
6.26
13.81
20.84
26.03
28.92
29.95
30.17
30.58
31.68
33.28
34.68
35.10
34.07
31.67
28.37
24.81
21.45
18.40
15.53
12.64
9.63
6.65
3.93
1.74
0.19
-0.80
-1.42
-1.96
-2.72
-3.93
-5.64
-7.75
-10.04
-12.24
-14.29
-16.31
-18.67
-21.78
-25.94
-31.14
-37.04
-43.09
-48.72
-53.60
-57.73
-61.40
-64.88
-68.21
-70.93
-72.20
-70.98
-66.11
-56.26
-39.93
-15.54
17.82
59.58
107.09
155.75
200.25
236.13
261.25
276.20
283.50
286.24
286.75
286.14
284.49
281.53
276.98
270.38
260.74
246.33
224.99
194.98
155.99
109.62
59.22
8.96
-37.42
-77.62
-111.13
-138.97
-162.93
-184.80
-205.82
-226.49
-246.74
-266.17
-284.38
-301.09
-316.25
-329.97
-342.30
-353.12
-361.94
-367.74
-369.14
-364.52
-352.37
-331.64
-302.04
-264.26
-220.02
-172.08
-124.04
-79.90
-43.41
-17.34
-2.73
1.42
-2.09
-9.54
-17.38
-23.31
-26.70
-28.39
-29.80
-32.01
-34.95
-37.41
-37.48
-33.37
-24.17
-10.23
7.13
26.01
44.68
61.89
76.97
89.66
99.86
107.43
112.22
114.24
113.78
111.50
108.21
104.64
101.12
97.59
93.70
89.13
83.82
78.06
72.30
66.97
62.17
57.69
53.05
47.79
41.73
35.01
28.14
21.71
16.19
11.77
8.23
5.11
1.92
-1.67
-5.72
-10.03
-14.26
-18.11
-21.38
-24.03
-26.18
-27.96
-29.46
-30.57
-31.15
-30.98
-29.99
-28.38
-26.51
-24.75
-23.27
-22.00
-20.64
-19.01
-17.15
-15.41
-14.28
-14.10
-14.90
-16.39
-18.16
-19.88
-21.51
-23.24
-25.32
-27.86
-30.73
-33.51
-35.74
-37.12
-37.68
-37.92
-38.62
-40.50
-43.89
-48.55
-53.75
-58.58
-62.39
-65.05
-66.96
-68.68
-70.63
-72.81
-74.87
-76.30
-76.76
-76.05
-73.94
-70.14
-64.25
-56.01
-45.73
-34.30
-23.01
-12.74
-3.30
6.96
20.55
39.53
64.03
91.41
116.83
134.89
141.80
136.80
122.38
102.83
82.45
63.91
47.86
33.67
20.65
9.01
-0.13
-5.52
-6.82
-5.11
-2.53
-1.18
-2.02
-4.32
-6.18
-5.67
-2.14
3.28
8.19
10.20
8.20
2.98
-3.20
-7.57
-8.08
-4.02
4.00
14.63
26.35
37.93
48.47
57.19
63.20
65.50
63.20
55.97
44.39
30.01
15.05
1.88
-7.65
-12.75
-13.70
-11.72
-8.37
-5.07
-2.68
-1.37
-0.79
-0.37
0.36
1.54
2.99
4.40
5.54
6.44
7.38
8.70
10.70
13.45
16.80
20.52
24.37
28.12
31.60
34.67
37.24
39.31
41.00
42.54
44.24
46.40
49.17
52.44
55.78
58.37
59.16
57.13
51.64
42.71
31.10
18.15
5.41
-5.81
-14.65
-20.77
-24.30
-25.56
-25.05
-23.29
-20.79
-18.00
-15.26
-12.76
-10.54
-8.50
-6.43
-4.11
-1.40
1.68
5.00
8.36
11.68
15.10
18.95
23.59
29.17
35.41
41.59
46.78
50.17
51.38
50.66
48.80
46.88
45.92
46.57
49.02
52.97
57.89
63.25
68.81
74.59
80.87
87.95
95.99
104.88
114.28
123.47
131.45
136.95
138.60
135.39
127.00
114.08
98.08
80.76
63.58
47.33
32.08
17.63
3.92
-8.68
-19.55
-28.18
-34.45
-38.62
-41.09
-42.01
-41.23
-38.45
-33.55
-26.90
-19.44
-12.46
-7.36
-5.26
-6.80
-11.99
-20.14
-30.02
-40.05
-48.76
-55.15
-58.99
-60.68
-60.97
-60.52
-59.62
-58.17
-55.96
-52.87
-49.13
-45.30
-42.11
-40.29
-40.32
-42.29
-45.81
-50.13
-54.32
-57.64
-59.81
-61.08
-62.16
-63.77
-66.32
-69.76
-73.55
-76.96
-79.43
-80.69
-80.78
-79.88
-78.08
-75.39
-71.72
-67.08
-61.42
-54.52
-45.69
-33.91
-18.29
1.16
22.99
44.43
62.21
73.83
78.62
77.99
74.81
72.04
71.71
74.26
78.82
84.05
88.85
92.79
95.80
97.63
97.39
93.44
83.92
67.53
44.18
15.13
-17.43
-51.02
-83.50
-113.09
-138.02
-156.16
-165.02
-162.41
-147.51
-121.66
-88.47
-52.94
-20.08
6.57
25.63
37.83
45.23
50.11
54.19
58.15
61.60
63.40
61.93
55.62
43.37
25.02
1.60
-24.79
-51.32
-75.20
-94.32
-107.65
-115.34
-118.43
-118.19
-115.55
-110.57
-102.39
-89.88
-72.45
-50.94
-27.85
-6.65
9.38
18.41
20.59
17.76
12.38
6.59
1.61
-2.13
-4.48
-5.23
-4.14
-1.27
2.79
6.98
10.18
11.80
11.98
11.61
11.88
13.81
17.96
24.23
32.02
40.40
48.36
55.10
60.08
63.22
64.70
64.84
63.96
62.23
59.68
56.29
52.13
47.43
42.48
37.52
32.73
28.11
23.62
19.19
14.81
10.48
6.19
1.97
-2.17
-6.17
-9.92
-13.27
-16.07
-18.28
-19.95
-21.29
-22.45
-23.58
-24.65
-25.48
-25.89
-25.72
-24.96
-23.76
-22.38
-21.08
-20.10
-19.59
-19.60
-20.10
-20.90
-21.70
-22.12
-21.86
-20.82
-19.21
-17.42
-15.93
-14.97
-14.51
-14.31
-14.11
-13.84
-13.67
-13.80
-14.29
-14.93
-15.30
-14.95
-13.68
-11.62
-9.14
-6.70
-4.67
-3.19
-2.17
-1.49
-0.94
-0.41
0.20
0.93
1.76
2.68
3.55
4.26
4.62
4.54
4.02
3.20
2.35
1.75
1.60
1.93
2.63
3.43
4.06
4.37
4.30
3.94
3.48
3.08
2.86
2.82
2.83
2.74
2.36
1.66
0.71
-0.29
-1.13
-1.65
-1.77
-1.54
-1.07
-0.46
0.18
0.72
0.99
0.78
-0.07
-1.62
-3.71
-6.06
-8.34
-10.27
-11.73
-12.84
-13.88
-15.14
-16.85
-19.03
-21.46
-23.84
-25.93
-27.68
-29.35
-31.40
-34.23
-37.96
-42.34
-46.80
-50.67
-53.47
-55.19
-56.21
-57.15
-58.51
-60.27
-61.85
-62.24
-60.45
-56.02
-49.34
-41.58
-34.33
-28.93
-26.12
-25.81
-27.22
-29.19
-30.37
-29.40
-25.05
-16.64
-4.42
10.05
24.08
34.53
38.82
35.90
26.56
13.08
-1.75
-15.50
-26.68
-34.50
-38.20
-36.58
-28.15
-12.13
10.32
35.53
57.94
71.96
74.05
64.08
45.14
21.92
-1.30
-21.92
-38.92
-51.75
-59.36
-59.94
-51.99
-35.61
-13.29
10.62
31.40
45.66
52.37
52.70
49.02
43.59
37.82
32.22
26.76
21.53
16.91
13.50
11.71
11.51
12.40
13.58
14.26
13.98
12.67
10.65
8.43
6.49
5.11
4.23
3.57
2.71
1.28
-0.84
-3.56
-6.56
-9.43
-11.75
-13.21
-13.60
-12.93
-11.39
-9.26
-6.90
-4.55
-2.36
-0.43
1.15
2.19
2.53
2.19
1.40
0.69
0.69
1.96
4.69
8.68
13.36
17.99
21.89
24.59
25.96
26.24
25.88
25.38
25.13
25.21
25.50
25.69
25.50
24.79
23.56
21.95
20.12
18.23
16.31
14.41
12.56
10.77
9.06
7.31
5.28
2.64
-0.83
-5.09
-9.65
-13.71
-16.32
-16.79
-14.89
-10.91
-5.61
0.12
5.50
10.07
13.67
16.36
18.29
19.59
20.27
20.33
19.75
18.61
17.12
15.57
14.23
13.27
12.72
12.44
12.27
12.05
11.74
11.41
11.21
11.29
11.71
12.38
13.12
13.63
13.66
12.99
11.49
9.15
6.06
2.45
-1.39
-5.15
-8.58
-11.55
-14.12
-16.49
-19.00
-22.01
-25.76
-30.22
-34.97
-39.23
-42.00
-42.41
-40.02
-34.96
-27.93
-19.90
-11.86
-4.51
1.79
6.98
11.24
14.80
17.87
20.54
22.82
24.55
25.64
26.06
25.95
25.59
25.23
25.04
25.10
25.36
25.72
26.08
26.27
26.12
25.44
24.12
22.24
19.98
17.60
15.25
12.96
10.60
8.04
5.22
2.21
-0.82
-3.70
-6.39
-8.97
-11.63
-14.63
-18.17
-22.25
-26.71
-31.07
-34.68
-36.78
-36.69
-34.02
-28.80
-21.49
-12.92
-4.05
4.31
11.55
17.45
21.98
25.22
27.34
28.51
28.96
28.96
28.83
28.76
28.87
29.12
29.44
29.77
30.19
30.80
31.75
33.08
34.68
36.26
37.45
37.94
37.63
36.73
35.65
34.90
34.78
35.30
36.12
36.79
36.94
36.47
35.54
34.53
33.82
33.69
34.13
34.91
35.67
35.98
35.50
34.10
31.89
29.21
26.57
24.54
23.61
23.99
25.43
27.25
28.39
27.75
24.54
18.54
10.12
-0.01
-11.11
-22.74
-34.71
-46.96
-59.35
-71.47
-82.83
-92.99
-101.75
-109.18
-115.46
-120.68
-124.79
-127.70
-129.52
-130.65
-131.82
-133.85
-137.38
-142.70
-149.75
-158.22
-167.74
-177.98
-188.68
-199.61
-210.56
-221.27
-231.35
-240.21
-246.99
-250.67
-250.33
-245.40
-235.83
-222.04
-204.67
-184.27
-161.28
-136.10
-109.19
-81.12
-52.33
-22.90
7.38
38.75
70.79
102.04
130.15
152.66
168.00
176.15
178.56
177.28
173.88
168.77
161.21
150.00
134.42
114.82
92.55
69.57
48.10
30.32
18.37
14.03
18.16
30.08
47.16
65.35
80.27
88.73
89.62
84.03
74.34
63.15
52.35
43.01
35.76
31.25
30.34
33.86
42.11
54.48
69.54
85.39
100.27
113.09
123.67
132.48
140.14
146.96
152.64
156.46
157.69
156.06
151.86
145.62
137.66
127.72
115.02
98.65
78.23
54.38
28.82
4.08
-17.24
-33.13
-42.74
-46.54
-46.02
-43.11
-39.51
-36.24
-33.49
-30.85
-27.59
-23.09
-17.04
-9.48
-0.75
8.64
18.21
27.58
36.53
45.04
53.11
60.76
67.93
74.51
80.36
85.31
89.19
91.80
93.04
92.89
91.44
88.71
84.54
78.64
70.79
61.20
50.69
40.59
32.18
26.10
22.01
18.73
14.93
9.91
3.96
-1.80
-6.13
-8.28
-8.23
-6.33
-2.68
3.21
12.26
25.23
42.12
62.24
84.63
108.49
133.16
157.38
178.61
192.81
195.52
183.56
156.67
118.13
73.82
30.30
-7.26
-36.22
-56.60
-70.13
-79.20
-86.00
-92.13
-98.57
-105.83
-113.91
-122.38
-130.38
-136.73
-140.26
-140.32
-137.03
-131.41
-124.89
-118.71
-113.33
-108.23
-102.22
-94.03
-82.89
-68.92
-53.00
-36.59
-21.22
-8.11
2.12
9.67
15.50
21.03
27.64
36.11
46.33
57.28
67.48
75.51
80.52
82.41
81.78
79.58
76.73
73.76
70.61
66.68
61.05
52.99
42.23
29.18
14.78
0.18
-13.60
-25.85
-36.17
-44.35
-50.28
-53.92
-55.41
-54.98
-53.00
-49.86
-45.82
-41.12
-36.00
-30.85
-26.25
-22.91
-21.55
-22.60
-26.10
-31.59
-38.17
-44.69
-50.09
-53.61
-55.05
-54.75
-53.46
-52.13
-51.59
-52.39
-54.71
-58.45
-63.31
-69.01
-75.30
-81.99
-88.83
-95.45
-101.41
-106.33
-110.07
-112.68
-114.31
-115.09
-114.98
-114.07
-112.74
-111.75
-111.97
-113.82
-116.68
-118.85
-118.04
-112.22
-100.54
-83.60
-63.26
-41.89
-21.64
-3.98
10.29
20.80
27.35
29.73
27.94
22.32
13.83
4.01
-5.20
-11.92
-14.87
-13.83
-9.70
-4.18
0.69
3.13
1.87
-3.70
-13.65
-27.77
-45.50
-65.84
-87.03
-106.41
-120.90
-127.96
-126.61
-118.20
-105.93
-93.73
-84.64
-79.69
-77.73
-76.36
-73.16
-66.79
-57.19
-45.16
-31.68
-17.51
-3.16
10.90
24.15
36.03
46.17
54.49
61.21
66.85
72.05
77.53
83.82
91.22
99.68
108.99
118.91
129.37
140.40
152.01
163.83
175.05
184.55
191.31
194.81
195.23
193.28
189.86
185.60
180.71
175.09
168.64
161.56
154.38
147.77
142.21
137.70
133.88
130.26
126.59
122.99
119.82
117.24
115.03
112.58
109.27
104.93
100.08
95.64
92.52
91.09
91.00
91.48
91.77
91.56
91.03
90.66
90.84
91.61
92.65
93.43
93.47
92.43
90.23
86.99
83.00
78.65
74.36
70.41
66.81
63.22
58.98
53.50
46.45
38.12
29.28
20.94
13.90
8.49
4.45
1.19
-1.89
-5.22
-9.05
-13.57
-19.10
-26.00
-34.43
-44.11
-54.21
-63.54
-71.04
-76.13
-78.87
-79.87
-79.90
-79.55
-78.92
-77.70
-75.32
-71.28
-65.41
-58.03
-49.92
-42.19
-35.93
-32.03
-30.94
-32.63
-36.67
-42.31
-48.74
-55.15
-60.94
-65.73
-69.44
-72.20
-74.20
-75.62
-76.54
-76.99
-77.02
-76.78
-76.42
-76.10
-75.80
-75.43
-74.88
-74.12
-73.31
-72.64
-72.30
-72.23
-72.16
-71.70
-70.50
-68.55
-66.15
-63.83
-62.03
-60.84
-59.98
-58.90
-57.08
-54.32
-50.82
-47.08
-43.61
-40.76
-38.57
-36.86
-35.34
-33.84
-32.37
-31.12
-30.30
-30.05
-30.33
-30.87
-31.26
-31.15
-30.36
-28.94
-27.11
-25.20
-23.48
-22.12
-21.19
-20.66
-20.41
-20.29
-20.12
-19.76
-19.15
-18.35
-17.44
-16.42
-15.19
-13.49
-11.03
-7.68
-3.51
1.06
5.42
8.91
11.05
11.70
11.13
9.88
8.61
7.87
7.92
8.73
9.94
11.12
11.90
12.13
11.88
11.37
10.79
10.22
9.60
8.84
7.91
6.91
5.98
5.22
4.59
3.93
3.07
1.92
0.57
-0.83
-2.07
-3.02
-3.64
-3.89
-3.82
-3.47
-2.94
-2.33
-1.74
-1.16
-0.55
0.18
1.00
1.82
2.48
2.89
3.03
2.98
2.84
2.67
2.47
2.21
1.86
1.43
0.97
0.54
0.17
-0.12
-0.34
-0.45
-0.40
-0.16
0.27
0.86
1.52
2.14
2.69
3.11
3.36
3.40
3.18
2.68
1.95
1.08
0.24
-0.45
-0.93
-1.25
-1.46
-1.66
-1.88
-2.13
-2.44
-2.82
-3.30
-3.84
-4.38
-4.83
-5.22
-5.60
-6.10
-6.73
-7.42
-7.99
-8.25
-8.25
-8.15
-8.28
-8.78
-9.62
-10.57
-11.37
-11.94
-12.43
-13.10
-14.15
-15.54
-17.01
-18.22
-18.95
-19.20
-19.12
-18.87
-18.48
-17.82
-16.70
-15.00
-12.81
-10.33
-7.85
-5.56
-3.45
-1.43
0.60
2.59
4.40
5.83
6.82
7.39
7.66
7.75
7.71
7.54
7.27
7.04
7.06
7.50
8.34
9.43
10.48
11.20
11.42
11.09
10.29
9.14
7.83
6.51
5.33
4.32
3.41
2.42
1.17
-0.44
-2.43
-4.64
-6.88
-8.98
-10.84
-12.49
-14.01
-15.47
-16.93
-18.47
-20.13
-21.97
-23.98
-26.03
-27.80
-28.78
-28.45
-26.43
-22.73
-17.72
-12.05
-6.41
-1.32
2.99
6.55
9.50
11.98
14.02
15.65
16.85
17.72
18.40
19.06
19.81
20.63
21.39
21.95
22.20
22.13
21.90
21.68
21.59
21.60
21.54
21.20
20.44
19.24
17.71
16.00
14.25
12.57
11.02
9.60
8.22
6.67
4.67
1.96
-1.52
-5.55
-9.69
-13.43
-16.43
-18.62
-20.25
-21.68
-23.35
-25.53
-28.31
-31.52
-34.74
-37.30
-38.49
-37.71
-34.77
-29.96
-24.04
-17.96
-12.49
-8.12
-4.93
-2.81
-1.62
-1.30
-1.81
-3.02
-4.62
-6.24
-7.62
-8.78
-10.07
-11.96
-14.84
-18.75
-23.42
-28.42
-33.45
-38.54
-44.01
-50.36
-57.99
-66.99
-77.14
-88.01
-99.22
-110.62
-122.29
-134.42
-147.16
-160.44
-174.09
-187.98
-202.10
-216.61
-231.51
-246.29
-259.72
-270.03
-275.47
-275.08
-269.07
-258.79
-246.06
-232.34
-218.22
-203.45
-187.51
-170.17
-151.64
-132.27
-111.92
-89.78
-64.73
-36.13
-4.61
27.95
59.22
87.55
112.83
136.46
160.37
185.91
213.02
240.27
265.65
287.33
304.23
316.03
322.83
324.81
322.26
315.72
306.20
295.10
283.81
273.33
263.89
255.11
246.33
237.14
227.59
218.12
209.24
201.21
193.97
187.18
180.33
172.83
163.92
152.69
138.35
120.56
99.95
78.13
57.46
40.37
28.64
22.94
22.70
26.39
31.90
37.02
39.84
38.99
33.82
24.38
11.24
-4.69
-22.25
-40.12
-56.80
-70.72
-80.54
-85.46
-85.59
-81.92
-76.12
-69.91
-64.56
-60.50
-57.31
-54.04
-49.63
-43.21
-34.30
-22.78
-8.87
6.89
23.50
39.51
53.09
62.42
66.18
64.01
56.67
45.90
33.98
23.09
14.89
10.14
8.70
9.67
11.80
13.81
14.74
14.11
11.90
8.41
3.97
-1.14
-6.78
-12.79
-18.85
-24.54
-29.44
-33.35
-36.25
-38.21
-39.19
-38.94
-37.22
-34.07
-29.99
-25.82
-22.37
-19.92
-18.16
-16.30
-13.74
-10.43
-7.02
-4.48
-3.66
-4.95
-8.25
-13.08
-18.87
-25.05
-31.10
-36.57
-41.08
-44.38
-46.39
-47.22
-47.05
-46.14
-44.70
-42.94
-41.01
-39.10
-37.34
-35.87
-34.75
-34.03
-33.75
-33.95
-34.70
-35.98
-37.74
-39.75
-41.65
-42.94
-43.18
-42.04
-39.45
-35.63
-30.93
-25.78
-20.57
-15.59
-11.11
-7.27
-4.13
-1.63
0.43
2.31
4.26
6.39
8.65
10.88
12.85
14.47
15.73
16.78
17.79
18.84
19.92
20.93
21.77
22.36
22.67
22.66
22.29
21.56
20.46
19.02
17.32
15.39
13.26
10.94
8.40
5.62
2.59
-0.70
-4.23
-7.94
-11.73
-15.43
-18.81
-21.66
-23.80
-25.07
-25.40
-24.80
-23.33
-21.11
-18.28
-14.92
-11.06
-6.74
-1.99
3.03
8.14
13.24
18.26
23.32
28.47
33.73
38.94
43.78
47.93
51.13
53.29
54.48
54.89
54.72
54.16
53.25
51.96
50.13
47.59
44.24
40.15
35.58
30.91
26.56
22.94
20.27
18.60
17.76
17.38
17.00
16.15
14.49
11.88
8.47
4.72
1.26
-1.13
-1.83
-0.45
3.00
8.19
14.59
21.61
28.70
35.36
41.07
45.34
47.70
47.89
45.97
42.31
37.55
32.35
27.23
22.52
18.33
14.71
11.76
9.74
9.14
10.52
14.11
19.54
25.43
29.66
29.80
23.95
11.32
-7.52
-30.89
-56.53
-82.18
-106.00
-126.68
-143.41
-155.69
-163.24
-165.98
-163.97
-157.55
-147.36
-134.33
-119.64
-104.50
-89.97
-76.77
-65.28
-55.61
-47.78
-41.73
-37.38
-34.53
-32.90
-32.11
-31.79
-31.58
-31.26
-30.80
-30.31
-30.05
-30.34
-31.39
-33.30
-36.07
-39.57
-43.65
-48.13
-52.65
-56.71
-59.79
-61.57
-62.13
-62.08
-62.41
-64.11
-67.76
-73.29
-79.96
-86.61
-91.96
-94.96
-94.96
-91.70
-85.25
-75.88
-64.13
-50.79
-36.88
-23.67
-12.42
-4.26
-0.09
-0.65
-6.38
-17.18
-31.90
-48.13
-62.36
-70.83
-70.74
-61.27
-43.95
-21.88
1.49
23.72
43.98
62.85
81.44
100.49
119.99
139.28
157.61
174.52
189.97
204.04
216.53
226.77
233.69
236.32
234.29
227.96
218.30
206.45
193.24
179.10
164.11
148.33
131.91
115.19
98.50
82.28
67.09
53.78
43.42
36.99
34.91
36.74
41.12
46.32
50.90
54.29
56.97
60.07
64.75
71.49
79.83
88.41
95.52
99.77
100.47
97.80
92.57
85.87
78.72
71.93
65.92
60.77
56.08
51.07
44.80
36.55
26.12
14.01
1.22
-11.13
-22.29
-31.87
-39.87
-46.30
-51.15
-54.40
-56.28
-57.39
-58.56
-60.55
-63.66
-67.65
-71.85
-75.64
-78.80
-81.66
-84.90
-89.14
-94.56
-100.70
-106.63
-111.23
-113.68
-113.75
-111.84
-108.80
-105.50
-102.54
-100.07
-97.82
-95.42
-92.65
-89.53
-86.23
-82.82
-79.08
-74.60
-68.97
-62.19
-54.74
-47.46
-41.11
-36.06
-32.11
-28.71
-25.29
-21.61
-17.86
-14.50
-11.96
-10.45
-9.71
-9.15
-7.89
-5.07
-0.13
6.98
15.61
24.60
32.50
38.09
40.56
39.83
36.40
31.25
25.58
20.55
17.07
15.65
16.36
18.97
23.04
28.13
33.78
39.39
44.12
46.95
46.93
43.48
36.67
27.21
16.15
4.47
-7.18
-18.56
-29.67
-40.56
-51.09
-60.96
-69.89
-77.81
-84.89
-91.49
-97.98
-104.69
-112.13
-120.90
-131.62
-144.35
-158.20
-171.20
-180.91
-185.33
-183.70
-176.79
-166.28
-153.83
-140.40
-126.39
-112.29
-99.33
-89.52
-84.67
-85.38
-90.38
-96.96
-102.12
-103.66
-100.65
-93.35
-82.68
-69.91
-56.68
-45.02
-37.14
-34.65
-37.61
-44.07
-50.31
-52.04
-45.86
-30.49
-7.04
21.69
52.32
82.15
109.67
134.55
156.91
176.76
193.55
206.45
214.84
218.79
219.02
216.55
212.10
205.85
197.58
187.12
174.79
161.46
148.30
136.39
126.37
118.41
112.28
107.62
104.03
101.12
98.51
95.74
92.28
87.51
80.83
71.78
60.16
46.26
30.90
15.42
1.49
-9.28
-15.68
-17.14
-13.85
-6.64
3.23
14.44
25.73
36.10
44.85
51.63
56.42
59.51
61.48
63.00
64.74
67.24
70.90
75.88
82.09
89.03
95.88
101.70
105.65
107.33
106.82
104.50
100.82
96.03
90.21
83.28
75.14
65.70
54.74
42.03
27.40
10.99
-6.56
-24.20
-40.69
-55.06
-66.85
-76.13
-83.18
-88.32
-91.63
-93.07
-92.72
-90.92
-88.27
-85.44
-82.89
-80.71
-78.71
-76.53
-73.94
-70.91
-67.61
-64.31
-61.20
-58.39
-55.86
-53.57
-51.39
-49.15
-46.62
-43.63
-40.09
-36.10
-31.88
-27.71
-23.81
-20.29
-17.13
-14.29
-11.68
-9.28
-7.11
-5.23
-3.66
-2.39
-1.37
-0.55
0.08
0.51
0.72
0.69
0.55
0.45
0.53
0.87
1.39
1.89
2.15
2.05
1.59
0.92
0.21
-0.44
-1.00
-1.54
-2.12
-2.71
-3.29
-3.80
-4.26
-4.70
-5.17
-5.65
-6.06
-6.33
-6.46
-6.61
-7.02
-7.86
-9.14
-10.55
-11.66
-12.09
-11.67
-10.50
-8.86
-7.02
-5.10
-3.12
-1.11
0.81
2.41
3.49
4.00
4.17
4.29
4.65
5.26
5.90
6.28
6.19
5.69
5.02
4.52
4.35
4.44
4.53
4.31
3.64
2.61
1.48
0.51
-0.15
-0.58
-1.00
-1.65
-2.54
-3.50
-4.27
-4.61
-4.54
-4.28
-4.17
-4.43
-5.09
-5.97
-6.85
-7.59
-8.18
-8.71
-9.23
-9.75
-10.22
-10.61
-10.98
-11.46
-12.13
-12.99
-13.87
-14.52
-14.68
-14.22
-13.11
-11.47
-9.56
-7.70
-6.25
-5.48
-5.56
-6.39
-7.72
-9.16
-10.32
-11.02
-11.27
-11.33
-11.55
-12.22
-13.46
-15.10
-16.78
-18.14
-18.98
-19.31
-19.36
-19.44
-19.81
-20.75
-22.50
-25.30
-29.01
-32.74
-34.67
-32.41
-24.00
-8.94
11.09
32.59
51.50
64.61
70.55
69.81
63.85
54.17
41.83
27.56
12.33
-2.41
-14.98
-24.11
-29.55
-32.07
-32.92
-33.14
-33.05
-32.27
-30.23
-26.73
-22.16
-17.36
-13.21
-10.21
-8.30
-7.11
-6.20
-5.38
-4.80
-4.81
-5.62
-7.15
-8.88
-10.06
-10.00
-8.30
-5.03
-0.57
4.62
10.22
16.05
22.04
27.98
33.41
37.77
40.57
41.67
41.39
40.37
39.34
38.81
38.89
39.26
39.35
38.56
36.47
33.08
28.72
23.94
19.20
14.63
9.92
4.46
-2.35
-10.80
-20.67
-31.30
-41.83
-51.44
-59.61
-66.20
-71.40
-75.60
-79.21
-82.54
-85.72
-88.69
-91.28
-93.26
-94.32
-94.07
-92.07
-87.93
-81.62
-73.64
-65.03
-57.11
-51.01
-47.21
-45.43
-44.84
-44.53
-43.81
-42.46
-40.61
-38.60
-36.80
-35.51
-34.92
-35.03
-35.71
-36.84
-38.38
-40.57
-43.90
-48.89
-55.79
-64.29
-73.47
-81.91
-88.09
-90.70
-89.12
-83.58
-75.22
-65.87
-57.45
-51.33
-47.68
-45.37
-42.39
-36.74
-27.24
-14.02
1.67
18.08
33.72
47.84
60.46
71.99
82.77
92.75
101.55
108.66
113.79
116.99
118.64
119.17
118.95
118.17
117.00
115.63
114.37
113.53
113.30
113.62
114.29
115.02
115.64
116.05
116.17
115.84
114.87
113.17
110.90
108.44
106.29
104.73
103.71
102.88
101.80
100.23
98.25
96.21
94.50
93.37
92.84
92.73
92.88
93.14
93.48
93.80
93.88
93.29
91.53
88.18
83.03
76.18
67.96
58.75
48.83
38.35
27.44
16.38
5.66
-4.12
-12.43
-19.16
-24.62
-29.46
-34.39
-39.95
-46.38
-53.74
-62.08
-71.59
-82.42
-94.52
-107.35
-119.85
-130.55
-138.00
-141.13
-139.51
-133.41
-123.60
-111.16
-97.20
-82.77
-68.76
-55.86
-44.53
-35.04
-27.42
-21.52
-17.02
-13.54
-10.66
-8.04
-5.50
-3.03
-0.74
1.18
2.60
3.51
4.07
4.48
4.92
5.44
5.97
6.43
6.69
6.66
6.32
5.64
4.60
3.23
1.66
0.13
-1.03
-1.50
-1.10
0.17
2.07
4.26
6.37
8.16
9.54
10.49
11.02
11.15
10.92
10.36
9.59
8.75
7.96
7.26
6.67
6.16
5.70
5.31
4.96
4.59
4.13
3.47
2.60
1.56
0.44
-0.65
-1.69
-2.70
-3.76
-4.95
-6.29
-7.71
-9.10
-10.27
-11.14
-11.68
-11.99
-12.21
-12.44
-12.72
-12.93
-12.94
-12.66
-12.15
-11.54
-11.05
-10.79
-10.83
-11.13
-11.67
-12.43
-13.37
-14.38
-15.18
-15.41
-14.71
-12.91
-10.07
-6.50
-2.66
1.05
4.33
7.04
9.18
10.74
11.78
12.35
12.50
12.29
11.82
11.14
10.37
9.58
8.89
8.39
8.11
8.02
8.03
8.09
8.18
8.36
8.72
9.23
9.77
10.11
10.02
9.43
8.38
7.05
5.64
4.28
3.00
1.81
0.73
-0.24
-1.08
-1.89
-2.80
-3.91
-5.24
-6.65
-7.93
-8.94
-9.69
-10.40
-11.36
-12.80
-14.74
-16.92
-18.89
-20.20
-20.52
-19.77
-18.11
-15.83
-13.31
-10.76
-8.32
-5.98
-3.75
-1.72
-0.13
0.80
0.99
0.67
0.37
0.82
2.78
6.84
13.24
21.92
32.51
44.43
56.90
69.13
80.34
89.88
97.34
102.53
105.39
105.95
104.23
100.26
94.13
85.99
76.13
64.92
52.84
40.42
28.18
16.57
5.83
-3.97
-12.89
-21.02
-28.31
-34.59
-39.63
-43.33
-45.85
-47.62
-49.16
-50.84
-52.79
-54.92
-57.10
-59.34
-61.73
-64.43
-67.44
-70.48
-73.11
-74.91
-75.68
-75.55
-74.79
-73.60
-71.89
-69.33
-65.43
-59.92
-52.91
-44.92
-36.66
-28.80
-21.67
-15.25
-9.34
-3.69
1.84
7.26
12.55
17.75
22.93
28.10
33.11
37.64
41.25
43.72
45.06
45.67
46.08
46.75
47.92
49.50
51.24
52.81
53.98
54.54
54.33
53.24
51.20
48.35
44.93
41.29
37.61
33.78
29.39
23.93
17.10
8.98
0.05
-9.01
-17.67
-25.73
-33.28
-40.54
-47.54
-54.06
-59.65
-63.89
-66.58
-67.80
-67.84
-66.93
-65.19
-62.59
-59.10
-54.88
-50.27
-45.77
-41.79
-38.50
-35.78
-33.32
-30.80
-28.03
-25.08
-22.16
-19.52
-17.34
-15.65
-14.33
-13.22
-12.21
-11.27
-10.43
-9.72
-9.15
-8.74
-8.59
-8.81
-9.55
-10.86
-12.66
-14.84
-17.29
-20.00
-22.98
-26.16
-29.32
-32.11
-34.23
-35.55
-36.21
-36.57
-37.10
-38.16
-39.79
-41.51
-42.27
-40.55
-34.70
-23.49
-6.60
15.18
40.05
65.73
90.12
111.71
129.60
143.24
152.20
156.02
154.32
147.07
134.56
117.44
96.59
73.11
48.35
23.86
1.21
-18.27
-33.83
-45.46
-53.79
-59.75
-64.25
-67.86
-70.82
-73.20
-74.97
-76.10
-76.57
-76.38
-75.57
-74.22
-72.39
-70.10
-67.38
-64.25
-60.86
-57.47
-54.30
-51.48
-48.86
-46.05
-42.62
-38.26
-32.95
-26.98
-20.87
-15.15
-10.17
-5.94
-2.24
1.22
4.61
7.78
10.35
11.92
12.32
11.68
10.40
8.93
7.54
6.25
4.94
3.47
1.82
-0.04
-2.16
-4.65
-7.61
-11.02
-14.64
-18.02
-20.69
-22.33
-22.89
-22.57
-21.69
-20.58
-19.42
-18.25
-16.98
-15.47
-13.57
-11.14
-8.10
-4.39
0.02
5.03
10.51
16.16
21.67
26.74
31.22
35.10
38.45
41.34
43.81
45.78
47.16
47.90
47.99
47.54
46.60
45.26
43.55
41.53
39.23
36.75
34.18
31.59
29.01
26.44
23.86
21.24
18.56
15.77
12.77
9.45
5.64
1.31
-3.37
-7.99
-11.93
-14.58
-15.53
-14.76
-12.59
-9.58
-6.27
-3.07
-0.13
2.53
4.94
7.15
9.10
10.74
12.04
12.98
13.59
13.92
14.07
14.16
14.30
14.55
14.89
15.22
15.39
15.26
14.79
14.02
13.09
12.18
11.44
10.92
10.52
10.06
9.32
8.16
6.58
4.71
2.77
0.94
-0.71
-2.21
-3.67
-5.19
-6.89
-8.84
-11.12
-13.79
-16.75
-19.69
-22.11
-23.48
-23.41
-21.81
-18.95
-15.32
-11.45
-7.72
-4.28
-1.10
1.92
4.83
7.59
10.12
12.32
14.11
15.49
16.50
17.23
17.79
18.32
18.93
19.70
20.60
21.53
22.32
22.85
23.04
22.94
22.64
22.24
21.81
21.34
20.82
20.18
19.33
18.15
16.50
14.27
11.43
8.09
4.45
0.73
-2.89
-6.32
-9.54
-12.56
-15.42
-18.15
-20.75
-23.16
-25.21
-26.64
-27.17
-26.60
-24.95
-22.39
-19.24
-15.83
-12.42
-9.13
-6.07
-3.30
-0.92
1.00
2.45
3.55
4.49
5.47
6.61
7.89
9.13
10.16
10.81
11.03
10.93
10.65
10.37
10.20
10.13
10.09
9.96
9.68
9.23
8.66
8.09
7.52
6.91
6.10
4.98
3.49
1.74
-0.04
-1.62
-2.89
-3.93
-4.93
-6.14
-7.73
-9.75
-12.12
-14.68
-17.24
-19.53
-21.30
-22.23
-22.06
-20.67
-18.08
-14.57
-10.58
-6.62
-3.14
-0.32
1.88
3.75
5.57
7.51
9.48
11.21
12.43
13.03
13.17
13.17
13.30
13.68
14.20
14.65
14.86
14.83
14.66
14.49
14.37
14.25
14.01
13.53
12.75
11.69
10.40
9.01
7.65
6.44
5.41
4.53
3.66
2.63
1.30
-0.31
-2.05
-3.67
-4.95
-5.86
-6.56
-7.35
-8.57
-10.41
-12.84
-15.59
-18.23
-20.32
-21.48
-21.44
-20.11
-17.57
-14.06
-9.99
-5.81
-1.91
1.45
4.19
6.33
7.93
9.02
9.66
9.96
10.08
10.17
10.32
10.53
10.72
10.81
10.78
10.65
10.53
10.51
10.62
10.84
11.07
11.15
10.91
10.26
9.24
8.00
6.76
5.70
4.87
4.20
3.55
2.82
1.99
1.09
0.15
-0.78
-1.72
-2.67
-3.62
-4.59
-5.67
-6.94
-8.52
-10.47
-12.74
-15.15
-17.38
-19.03
-19.68
-19.09
-17.23
-14.39
-11.04
-7.70
-4.69
-2.11
0.13
2.17
4.02
5.55
6.61
7.14
7.28
7.29
7.44
7.82
8.35
8.81
9.02
8.91
8.62
8.35
8.30
8.52
8.88
9.13
9.03
8.45
7.47
6.29
5.18
4.30
3.65
3.14
2.61
1.93
1.03
-0.09
-1.38
-2.74
-4.09
-5.28
-6.25
-6.97
-7.57
-8.23
-9.17
-10.53
-12.26
-14.15
-15.89
-17.15
-17.65
-17.23
-15.84
-13.56
-10.58
-7.21
-3.78
-0.66
1.90
3.77
4.99
5.75
6.26
6.67
7.05
7.35
7.49
7.42
7.16
6.79
6.44
6.17
6.00
5.87
5.74
5.59
5.44
5.31
5.24
5.22
5.20
5.12
4.90
4.42
3.59
2.39
0.87
-0.75
-2.20
-3.20
-3.66
-3.68
-3.57
-3.68
-4.29
-5.49
-7.24
-9.38
-11.69
-13.96
-15.94
-17.32
-17.85
-17.31
-15.73
-13.28
-10.32
-7.22
-4.31
-1.77
0.32
1.99
3.30
4.27
4.95
5.36
5.55
5.60
5.65
5.76
5.98
6.27
6.48
6.55
6.45
6.30
6.25
6.40
6.71
7.04
7.19
6.98
6.40
5.51
4.48
3.44
2.49
1.65
0.90
0.20
-0.51
-1.23
-1.95
-2.65
-3.36
-4.14
-5.10
-6.31
-7.80
-9.54
-11.43
-13.30
-14.97
-16.19
-16.66
-16.13
-14.50
-11.92
-8.81
-5.72
-3.12
-1.23
0.02
0.94
1.87
3.05
4.46
5.93
7.19
8.01
8.34
8.24
7.91
7.53
7.22
7.02
6.91
6.88
6.88
6.84
6.66
6.19
5.38
4.31
3.22
2.34
1.81
1.60
1.51
1.37
1.08
0.69
0.27
-0.17
-0.72
-1.51
-2.58
-3.90
-5.34
-6.79
-8.25
-9.84
-11.59
-13.44
-15.13
-16.26
-16.49
-15.66
-13.84
-11.32
-8.50
-5.78
-3.42
-1.48
0.11
1.48
2.72
3.86
4.82
5.54
5.98
6.18
6.23
6.21
6.21
6.27
6.43
6.67
6.94
7.10
7.01
6.61
5.93
5.13
4.39
3.85
3.49
3.24
2.96
2.58
2.04
1.35
0.48
-0.59
-1.85
-3.24
-4.63
-5.92
-7.08
-8.19
-9.40
-10.84
-12.52
-14.27
-15.77
-16.56
-16.30
-14.87
-12.40
-9.30
-6.06
-3.09
-0.67
1.16
2.46
3.34
3.91
4.28
4.56
4.85
5.23
5.73
6.29
6.82
7.18
7.29
7.13
6.77
6.38
6.14
6.16
6.42
6.76
6.96
6.85
6.38
5.64
4.73
3.76
2.73
1.65
0.56
-0.43
-1.24
-1.80
-2.16
-2.45
-2.82
-3.37
-4.17
-5.24
-6.62
-8.31
-10.27
-12.35
-14.29
-15.80
-16.59
-16.47
-15.40
-13.49
-10.99
-8.25
-5.62
-3.34
-1.46
0.10
1.55
3.00
4.43
5.65
6.46
6.73
6.53
6.07
5.65
5.48
5.61
5.95
6.36
6.72
6.97
7.19
7.41
7.65
7.80
7.69
7.21
6.34
5.22
4.08
3.15
2.49
2.03
1.54
0.80
-0.30
-1.67
-3.07
-4.24
-5.02
-5.45
-5.78
-6.34
-7.39
-9.03
-11.11
-13.25
-15.01
-16.05
-16.17
-15.37
-13.77
-11.57
-8.97
-6.21
-3.53
-1.15
0.80
2.32
3.51
4.51
5.39
6.14
6.71
7.06
7.26
7.47
7.83
8.34
8.91
9.31
9.37
9.06
8.50
7.88
7.35
6.92
6.52
6.04
5.42
4.71
4.04
3.52
3.16
2.86
2.44
1.79
0.92
-0.05
-0.97
-1.73
-2.37
-2.97
-3.66
-4.49
-5.47
-6.60
-7.98
-9.69
-11.77
-14.03
-16.10
-17.47
-17.71
-16.66
-14.49
-11.64
-8.61
-5.79
-3.34
-1.25
0.58
2.18
3.53
4.58
5.35
5.92
6.42
6.95
7.49
7.88
7.97
7.71
7.23
6.81
6.75
7.17
7.99
8.90
9.54
9.64
9.09
8.02
6.66
5.27
4.05
3.11
2.43
1.98
1.63
1.28
0.83
0.18
-0.64
-1.58
-2.45
-3.12
-3.49
-3.68
-3.96
-4.72
-6.22
-8.50
-11.27
-14.01
-16.14
-17.25
-17.16
-16.01
-14.08
-11.72
-9.19
-6.66
-4.24
-1.97
0.09
1.87
3.34
4.44
5.16
5.53
5.67
5.71
5.83
6.14
6.67
7.30
7.86
8.18
8.23
8.11
7.99
8.03
8.24
8.48
8.53
8.23
7.56
6.66
5.69
4.80
4.02
3.30
2.53
1.64
0.57
-0.58
-1.75
-2.82
-3.74
-4.54
-5.33
-6.29
-7.56
-9.19
-11.07
-12.99
-14.68
-15.84
-16.25
-15.80
-14.50
-12.49
-10.02
-7.42
-4.92
-2.68
-0.68
1.15
2.88
4.49
5.85
6.81
7.28
7.34
7.19
7.07
7.13
7.41
7.81
8.14
8.29
8.24
8.08
7.99
8.07
8.33
8.61
8.68
8.37
7.61
6.55
5.38
4.30
3.36
2.46
1.47
0.29
-1.08
-2.48
-3.74
-4.72
-5.35
-5.66
-5.77
-5.84
-6.10
-6.76
-7.96
-9.73
-11.89
-14.09
-15.90
-16.95
-17.00
-16.04
-14.24
-11.87
-9.21
-6.46
-3.75
-1.16
1.22
3.24
4.78
5.78
6.29
6.50
6.62
6.85
7.27
7.84
8.43
8.88
9.08
9.02
8.78
8.51
8.34
8.31
8.40
8.49
8.49
8.31
7.90
7.22
6.26
5.06
3.72
2.39
1.25
0.38
-0.20
-0.60
-0.97
-1.41
-1.98
-2.70
-3.61
-4.77
-6.24
-8.04
-10.12
-12.31
-14.41
-16.12
-17.17
-17.36
-16.61
-15.03
-12.85
-10.36
-7.79
-5.29
-2.93
-0.73
1.26
2.98
4.39
5.47
6.28
6.87
7.31
7.62
7.83
7.98
8.10
8.17
8.20
8.13
7.99
7.83
7.77
7.85
8.03
8.13
7.95
7.41
6.52
5.45
4.41
3.47
2.62
1.67
0.49
-0.95
-2.56
-4.14
-5.49
-6.53
-7.36
-8.19
-9.23
-10.60
-12.26
-14.06
-15.75
-17.08
-17.82
-17.79
-16.89
-15.11
-12.58
-9.55
-6.36
-3.34
-0.72
1.37
2.95
4.10
4.96
5.67
6.30
6.86
7.30
7.53
7.52
7.34
7.14
7.03
7.10
7.25
7.35
7.26
6.93
6.43
5.92
5.53
5.29
5.12
4.84
4.30
3.41
2.23
0.91
-0.35
-1.46
-2.45
-3.42
-4.52
-5.81
-7.31
-8.98
-10.80
-12.70
-14.54
-16.05
-16.86
-16.65
-15.31
-13.04
-10.25
-7.45
-4.98
-2.90
-1.11
0.59
2.31
4.01
5.53
6.69
7.39
7.70
7.80
7.95
8.34
8.99
9.75
10.36
10.59
10.35
9.79
9.14
8.61
8.30
8.10
7.85
7.44
6.92
6.38
5.93
5.51
4.98
4.17
3.00
1.56
0.05
-1.35
-2.55
-3.59
-4.54
-5.53
-6.61
-7.84
-9.33
-11.16
-13.34
-15.68
-17.75
-18.99
-18.96
-17.52
-14.93
-11.72
-8.44
-5.42
-2.68
-0.06
2.58
5.21
7.63
9.57
10.84
11.40
11.35
10.88
10.15
9.33
8.53
7.85
7.33
7.01
6.88
6.91
7.11
7.42
7.75
7.95
7.90
7.53
6.88
6.07
5.24
4.44
3.66
2.83
1.94
0.98
-0.02
-1.01
-2.03
-3.12
-4.35
-5.72
-7.24
-8.88
-10.63
-12.55
-14.63
-16.80
-18.80
-20.28
-20.81
-20.15
-18.26
-15.40
-11.98
-8.44
-5.13
-2.25
0.13
2.03
3.53
4.69
5.64
6.49
7.33
8.17
8.98
9.63
10.02
10.12
10.02
9.84
9.73
9.81
10.10
10.55
11.06
11.47
11.66
11.57
11.20
10.60
9.84
8.97
8.03
7.01
5.94
4.84
3.76
2.68
1.59
0.44
-0.80
-2.08
-3.33
-4.46
-5.44
-6.34
-7.35
-8.66
-10.44
-12.66
-15.12
-17.44
-19.16
-19.88
-19.41
-17.74
-15.12
-11.90
-8.50
-5.26
-2.45
-0.14
1.68
3.15
4.45
5.70
6.93
8.07
9.05
9.79
10.29
10.61
10.82
10.97
11.04
11.05
11.03
11.03
11.06
11.08
11.01
10.80
10.46
10.03
9.60
9.20
8.79
8.31
7.70
6.99
6.23
5.46
4.68
3.78
2.65
1.22
-0.40
-2.01
-3.41
-4.46
-5.23
-5.98
-7.02
-8.62
-10.86
-13.61
-16.51
-19.14
-21.08
-22.03
-21.81
-20.43
-18.05
-14.99
-11.62
-8.30
-5.28
-2.67
-0.44
1.52
3.28
4.83
6.15
7.17
7.89
8.36
8.65
8.89
9.15
9.49
9.88
10.28
10.61
10.81
10.89
10.89
10.88
10.90
10.88
10.71
10.27
9.53
8.53
7.42
6.32
5.31
4.37
3.46
2.52
1.54
0.52
-0.53
-1.58
-2.58
-3.53
-4.40
-5.24
-6.18
-7.40
-9.06
-11.20
-13.68
-16.10
-17.97
-18.81
-18.36
-16.62
-13.89
-10.64
-7.34
-4.35
-1.85
0.15
1.77
3.13
4.32
5.42
6.40
7.17
7.64
7.77
7.60
7.28
7.01
6.95
7.17
7.61
8.14
8.59
8.86
8.89
8.67
8.20
7.48
6.56
5.53
4.54
3.71
3.16
2.86
2.70
2.46
1.97
1.15
0.07
-1.11
-2.22
-3.20
-4.12
-5.17
-6.52
-8.27
-10.32
-12.47
-14.47
-16.06
-17.03
-17.21
-16.47
-14.82
-12.42
-9.65
-6.95
-4.71
-3.07
-1.91
-0.93
0.18
1.53
3.05
4.52
5.76
6.70
7.38
7.92
8.37
8.67
8.75
8.54
8.13
7.68
7.42
7.49
7.89
8.43
8.88
9.03
8.78
8.23
7.52
6.82
6.21
5.66
5.04
4.21
3.07
1.60
-0.10
-1.88
-3.52
-4.90
-5.97
-6.82
-7.64
-8.67
-10.14
-12.09
-14.40
-16.78
-18.76
-19.91
-19.88
-18.63
-16.33
-13.33
-10.05
-6.84
-3.91
-1.40
0.65
2.27
3.51
4.52
5.41
6.28
7.10
7.82
8.36
8.74
9.07
9.48
10.10
10.87
11.64
12.20
12.44
12.35
12.05
11.68
11.34
11.03
10.65
10.10
9.37
8.52
7.66
6.88
6.14
5.35
4.38
3.20
1.86
0.47
-0.86
-2.14
-3.48
-5.05
-6.98
-9.30
-11.93
-14.61
-17.01
-18.74
-19.47
-19.00
-17.40
-14.94
-12.06
-9.22
-6.72
-4.72
-3.20
-2.05
-1.09
-0.19
0.74
1.73
2.74
3.65
4.31
4.65
4.67
4.54
4.47
4.60
4.98
5.49
5.99
6.35
6.51
6.49
6.29
5.93
5.39
4.63
3.66
2.57
1.45
0.40
-0.55
-1.44
-2.34
-3.28
-4.24
-5.19
-6.12
-7.06
-8.11
-9.37
-10.92
-12.75
-14.78
-16.80
-18.53
-19.62
-19.71
-18.60
-16.28
-13.04
-9.38
-5.88
-2.95
-0.74
0.88
2.20
3.47
4.80
6.11
7.28
8.19
8.84
9.32
9.75
10.19
10.65
11.08
11.42
11.67
11.86
12.00
12.10
12.06
11.76
11.10
10.11
8.93
7.78
6.91
6.40
6.23
6.18
5.97
5.36
4.25
2.72
0.97
-0.75
-2.27
-3.51
-4.52
-5.40
-6.25
-7.15
-8.19
-9.51
-11.26
-13.52
-16.15
-18.75
-20.72
-21.47
-20.66
-18.38
-15.11
-11.50
-8.13
-5.36
-3.26
-1.68
-0.37
0.89
2.22
3.64
5.04
6.24
7.08
7.52
7.65
7.64
7.67
7.84
8.15
8.52
8.86
9.15
9.39
9.61
9.76
9.73
9.41
8.74
7.78
6.69
5.66
4.85
4.29
3.88
3.48
2.92
2.14
1.14
-0.00
-1.24
-2.57
-4.02
-5.61
-7.37
-9.30
-11.38
-13.55
-15.70
-17.58
-18.85
-19.13
-18.16
-15.92
-12.70
-8.98
-5.30
-2.15
0.18
1.66
2.47
2.93
3.37
4.03
4.94
5.93
6.76
7.19
7.21
6.97
6.72
6.72
7.02
7.52
8.04
8.41
8.59
8.59
8.48
8.29
7.97
7.45
6.68
5.62
4.32
2.89
1.43
0.05
-1.16
-2.19
-3.05
-3.82
-4.56
-5.40
-6.47
-7.92
-9.80
-12.08
-14.57
-16.93
-18.73
-19.58
-19.20
-17.57
-14.87
-11.53
-8.03
-4.78
-2.01
0.28
2.20
3.90
5.38
6.57
7.38
7.80
8.00
8.23
8.64
9.28
10.01
10.64
11.08
11.34
11.52
11.64
11.61
11.24
10.43
9.21
7.83
6.60
5.75
5.32
5.12
4.89
4.40
3.56
2.43
1.14
-0.19
-1.51
-2.84
-4.20
-5.57
-6.89
-8.14
-9.39
-10.87
-12.80
-15.23
-17.91
-20.27
-21.64
-21.49
-19.70
-16.57
-12.70
-8.72
-5.09
-2.00
0.54
2.57
4.12
5.25
6.08
6.78
7.54
8.43
9.43
10.37
11.07
11.45
11.54
11.50
11.53
11.77
12.18
12.61
12.81
12.57
11.81
10.61
9.17
7.69
6.33
5.08
3.88
2.66
1.44
0.27
-0.75
-1.65
-2.49
-3.42
-4.54
-5.90
-7.46
-9.16
-11.00
-13.03
-15.26
-17.56
-19.66
-21.12
-21.53
-20.65
-18.48
-15.27
-11.45
-7.47
-3.73
-0.46
2.20
4.25
5.77
6.88
7.77
8.55
9.30
10.01
10.60
11.00
11.19
11.26
11.36
11.61
12.00
12.41
12.65
12.59
12.20
11.59
10.91
10.25
9.59
8.80
7.80
6.60
5.30
4.07
2.98
1.98
0.95
-0.25
-1.64
-3.15
-4.62
-5.97
-7.23
-8.58
-10.27
-12.49
-15.20
-18.08
-20.58
-22.07
-22.12
-20.67
-18.03
-14.78
-11.47
-8.45
-5.77
-3.35
-1.10
0.96
2.79
4.35
5.72
6.99
8.23
9.35
10.19
10.64
10.72
10.60
10.53
10.62
10.87
11.13
11.26
11.21
11.00
10.73
10.42
10.02
9.49
8.79
7.94
7.02
6.04
5.01
3.89
2.64
1.30
-0.04
-1.25
-2.26
-3.07
-3.81
-4.68
-5.92
-7.71
-10.10
-12.99
-16.08
-18.93
-21.03
-21.94
-21.42
-19.49
-16.39
-12.57
-8.49
-4.59
-1.16
1.63
3.71
5.14
6.11
6.84
7.56
8.39
9.31
10.21
10.93
11.43
11.74
11.95
12.15
12.33
12.41
12.29
11.96
11.47
10.94
10.45
10.01
9.57
9.08
8.50
7.86
7.15
6.37
5.43
4.27
2.86
1.26
-0.39
-1.95
-3.28
-4.29
-5.06
-5.74
-6.57
-7.75
-9.40
-11.48
-13.85
-16.32
-18.67
-20.68
-22.11
-22.73
-22.35
-20.88
-18.36
-15.07
-11.37
-7.66
-4.27
-1.37
1.04
3.01
4.63
5.94
6.99
7.81
8.44
8.97
9.46
9.96
10.49
11.02
11.52
11.95
12.29
12.51
12.58
12.50
12.27
11.94
11.55
11.08
10.51
9.76
8.81
7.70
6.58
5.55
4.63
3.73
2.69
1.35
-0.25
-1.95
-3.49
-4.66
-5.41
-5.89
-6.36
-7.10
-8.32
-10.14
-12.53
-15.38
-18.44
-21.35
-23.60
-24.71
-24.36
-22.54
-19.54
-15.88
-12.05
-8.39
-4.99
-1.81
1.20
3.97
6.28
7.96
8.93
9.38
9.64
9.98
10.54
11.19
11.70
11.94
11.96
11.92
12.00
12.24
12.57
12.83
12.96
12.96
12.82
12.49
11.84
10.76
9.31
7.71
6.31
5.36
4.88
4.67
4.40
3.74
2.60
1.07
-0.60
-2.14
-3.37
-4.33
-5.18
-6.17
-7.48
-9.16
-11.08
-13.06
-14.97
-16.77
-18.54
-20.20
-21.53
-22.15
-21.69
-20.01
-17.26
-13.85
-10.24
-6.80
-3.75
-1.12
1.09
2.91
4.37
5.53
6.48
7.29
8.06
8.79
9.45
9.99
10.34
10.49
10.45
10.32
10.22
10.29
10.58
11.05
11.53
11.84
11.80
11.33
10.48
9.35
8.11
6.91
5.87
5.02
4.34
3.74
3.09
2.31
1.37
0.31
-0.81
-1.94
-3.04
-4.15
-5.31
-6.62
-8.16
-9.99
-12.11
-14.40
-16.64
-18.58
-19.95
-20.50
-20.10
-18.69
-16.36
-13.32
-9.91
-6.53
-3.51
-1.06
0.78
2.14
3.19
4.09
4.89
5.59
6.18
6.66
7.07
7.52
8.06
8.71
9.41
10.09
10.62
10.91
10.93
10.72
10.39
10.04
9.78
9.63
9.48
9.22
8.73
7.98
7.04
6.05
5.11
4.28
3.51
2.74
1.87
0.90
-0.14
-1.21
-2.30
-3.44
-4.66
-6.02
-7.52
-9.14
-10.85
-12.63
-14.46
-16.32
-18.11
-19.69
-20.81
-21.16
-20.53
-18.82
-16.19
-13.02
-9.78
-6.86
-4.45
-2.54
-0.97
0.42
1.67
2.77
3.65
4.38
5.08
5.90
6.89
7.90
8.70
9.08
9.03
8.72
8.47
8.56
9.05
9.78
10.44
10.71
10.44
9.66
8.58
7.45
6.48
5.71
5.09
4.44
3.62
2.54
1.25
-0.17
-1.59
-2.93
-4.20
-5.44
-6.71
-8.04
-9.44
-10.95
-12.61
-14.45
-16.40
-18.26
-19.68
-20.27
-19.70
-17.89
-15.04
-11.57
-8.00
-4.75
-2.06
0.08
1.79
3.21
4.44
5.48
6.31
6.93
7.39
7.80
8.29
8.89
9.56
10.11
10.36
10.19
9.64
8.94
8.37
8.16
8.33
8.69
8.93
8.82
8.30
7.51
6.63
5.83
5.09
4.28
3.24
1.92
0.42
-1.05
-2.31
-3.27
-4.00
-4.73
-5.72
-7.15
-9.04
-11.31
-13.72
-16.00
-17.94
-19.35
-20.10
-20.09
-19.23
-17.50
-15.00
-11.96
-8.70
-5.57
-2.86
-0.70
0.94
2.22
3.36
4.53
5.76
6.96
7.96
8.60
8.87
8.88
8.85
8.96
9.27
9.71
10.14
10.47
10.66
10.73
10.70
10.51
10.08
9.31
8.20
6.90
5.63
4.59
3.87
3.38
2.89
2.15
1.01
-0.54
-2.34
-4.11
-5.60
-6.68
-7.40
-8.02
-8.87
-10.26
-12.30
-14.86
-17.59
-19.98
-21.54
-21.90
-20.95
-18.85
-15.97
-12.74
-9.55
-6.63
-4.06
-1.84
0.08
1.68
3.00
4.08
5.03
5.98
6.97
7.96
8.81
9.40
9.70
9.81
9.89
10.12
10.55
11.14
11.70
12.01
11.89
11.25
10.15
8.74
7.25
5.86
4.67
3.70
2.87
2.09
1.26
0.34
-0.70
-1.86
-3.11
-4.43
-5.80
-7.24
-8.83
-10.68
-12.84
-15.25
-17.70
-19.79
-21.14
-21.44
-20.58
-18.71
-16.07
-12.98
-9.74
-6.58
-3.66
-1.14
0.93
2.58
3.94
5.18
6.38
7.52
8.45
9.08
9.40
9.62
9.97
10.63
11.56
12.54
13.30
13.62
13.49
13.01
12.33
11.55
10.67
9.66
8.50
7.22
5.93
4.70
3.57
2.50
1.38
0.14
-1.24
-2.74
-4.29
-5.87
-7.49
-9.21
-11.08
-13.11
-15.26
-17.45
-19.53
-21.32
-22.62
-23.17
-22.78
-21.32
-18.85
-15.60
-11.93
-8.19
-4.64
-1.40
1.57
4.33
6.90
9.25
11.26
12.85
13.97
14.72
15.26
15.75
16.24
16.66
16.81
16.53
15.80
14.76
13.68
12.76
12.11
11.66
11.19
10.56
9.66
8.58
7.47
6.48
5.70
5.05
4.38
3.52
2.31
0.76
-0.99
-2.74
-4.29
-5.59
-6.76
-8.05
-9.71
-11.87
-14.47
-17.30
-20.04
-22.42
-24.19
-25.14
-25.09
-23.96
-21.79
-18.79
-15.31
-11.75
-8.44
-5.47
-2.82
-0.31
2.20
4.75
7.25
9.47
11.19
12.30
12.83
12.97
12.99
13.14
13.51
14.06
14.63
15.04
15.20
15.08
14.75
14.27
13.68
12.98
12.15
11.16
10.01
8.74
7.45
6.20
5.04
3.91
2.72
1.38
-0.13
-1.75
-3.38
-4.87
-6.21
-7.48
-8.90
-10.68
-12.96
-15.67
-18.54
-21.13
-22.94
-23.61
-22.96
-21.11
-18.33
-15.01
-11.49
-8.05
-4.82
-1.90
0.70
2.98
4.99
6.78
8.33
9.60
10.54
11.13
11.45
11.68
11.99
12.49
13.18
13.91
14.52
14.85
14.88
14.68
14.37
14.07
13.79
13.45
12.90
12.03
10.85
9.51
8.21
7.11
6.24
5.47
4.59
3.46
2.05
0.48
-1.10
-2.61
-4.03
-5.45
-6.94
-8.55
-10.28
-12.13
-14.08
-16.14
-18.22
-20.16
-21.70
-22.54
-22.42
-21.24
-19.10
-16.26
-13.10
-9.95
-6.99
-4.20
-1.47
1.31
4.11
6.70
8.85
10.39
11.32
11.81
12.11
12.37
12.65
12.91
13.11
13.22
13.27
13.31
13.36
13.39
13.38
13.25
12.98
12.54
11.93
11.16
10.28
9.30
8.26
7.20
6.15
5.14
4.13
3.04
1.73
0.14
-1.67
-3.46
-5.00
-6.11
-6.88
-7.59
-8.61
-10.19
-12.37
-14.94
-17.59
-20.00
-21.90
-23.06
-23.27
-22.34
-20.20
-17.00
-13.15
-9.17
-5.54
-2.49
-0.03
2.03
3.91
5.68
7.32
8.71
9.77
10.48
10.95
11.27
11.52
11.72
11.84
11.86
11.85
11.87
12.00
12.23
12.46
12.56
12.45
12.10
11.57
10.92
10.24
9.55
8.85
8.13
7.39
6.62
5.81
4.93
3.97
2.91
1.77
0.58
-0.63
-1.84
-3.04
-4.20
-5.31
-6.40
-7.53
-8.83
-10.39
-12.30
-14.52
-16.93
-19.29
-21.24
-22.38
-22.37
-21.06
-18.58
-15.27
-11.58
-7.93
-4.52
-1.38
1.65
4.71
7.83
10.90
13.66
15.91
17.59
18.80
19.76
20.71
21.86
23.38
25.46
28.40
32.52
38.04
44.86
52.53
60.27
67.19
72.48
75.53
75.89
73.17
67.01
57.11
43.43
26.30
6.43
-15.18
-37.45
-59.30
-79.72
-97.72
-112.31
-122.65
-128.19
-128.86
-125.19
-118.19
-109.14
-99.30
-89.67
-80.79
-72.75
-65.33
-58.16
-50.89
-43.35
-35.58
-27.74
-20.03
-12.65
-5.73
0.67
6.46
11.58
15.96
19.56
22.44
24.68
26.44
27.90
29.20
30.45
31.68
32.87
33.95
34.83
35.46
35.79
35.88
35.80
35.67
35.54
35.42
35.22
34.85
34.27
33.50
32.66
31.82
31.04
30.30
29.55
28.83
28.25
27.97
28.14
28.79
29.85
31.15
32.56
33.99
35.45
36.98
38.60
40.28
41.99
43.72
45.53
47.60
50.23
53.76
58.39
64.13
70.72
77.76
84.91
92.13
99.64
107.65
116.00
123.95
130.08
132.70
130.26
121.71
106.75
85.71
59.36
28.71
-4.99
-40.35
-75.94
-110.45
-143.01
-173.18
-200.82
-225.70
-246.97
-263.05
-271.83
-271.35
-260.51
-239.76
-211.15
-177.89
-143.56
-111.27
-83.13
-60.09
-42.19
-28.84
-19.15
-12.16
-6.96
-2.78
0.92
4.39
7.60
10.32
12.34
13.56
14.07
14.17
14.24
14.66
15.65
17.27
19.36
21.63
23.73
25.37
26.40
26.84
26.88
26.79
26.79
27.00
27.38
27.74
27.86
27.59
26.90
25.92
24.84
23.84
23.01
22.33
21.68
20.95
20.06
18.99
17.76
16.41
15.00
13.59
12.29
11.22
10.48
10.10
9.96
9.81
9.36
8.42
6.99
5.30
3.71
2.51
1.84
1.58
1.46
1.12
0.31
-1.13
-3.16
-5.57
-8.03
-10.10
-11.35
-11.51
-10.52
-8.64
-6.26
-3.82
-1.64
0.18
1.68
2.94
4.06
5.05
5.89
6.56
7.06
7.42
7.68
7.84
7.88
7.78
7.59
7.42
7.40
7.64
8.16
8.85
9.54
10.04
10.25
10.15
9.72
8.98
7.96
6.74
5.43
4.22
3.27
2.66
2.34
2.17
1.92
1.45
0.68
-0.35
-1.49
-2.62
-3.61
-4.49
-5.35
-6.34
-7.57
-9.05
-10.68
-12.26
-13.62
-14.57
-14.99
-14.74
-13.73
-11.97
-9.63
-7.02
-4.49
-2.30
-0.56
0.78
1.81
2.62
3.28
3.88
4.47
5.12
5.77
6.31
6.59
6.54
6.23
5.85
5.61
5.59
5.72
5.86
5.86
5.69
5.41
5.13
4.92
4.71
4.42
3.99
3.40
2.73
2.10
1.60
1.22
0.89
0.46
-0.17
-1.03
-2.00
-2.94
-3.76
-4.48
-5.27
-6.34
-7.81
-9.57
-11.34
-12.72
-13.39
-13.17
-12.10
-10.38
-8.26
-6.03
-3.91
-2.10
-0.67
0.41
1.29
2.16
3.13
4.23
5.32
6.20
6.71
6.80
6.57
6.24
6.05
6.15
6.57
7.21
7.88
8.38
8.65
8.68
8.55
8.30
7.90
7.28
6.44
5.45
4.48
3.72
3.25
3.00
2.80
2.43
1.79
0.92
-0.03
-0.90
-1.60
-2.12
-2.54
-2.94
-3.39
-3.94
-4.62
-5.50
-6.63
-8.10
-9.88
-11.83
-13.66
-14.98
-15.42
-14.80
-13.20
-10.93
-8.44
-6.12
-4.16
-2.62
-1.38
-0.29
0.74
1.72
2.62
3.39
3.99
4.44
4.79
5.08
5.36
5.62
5.88
6.10
6.28
6.40
6.50
6.59
6.64
6.60
6.39
5.96
5.33
4.59
3.86
3.23
2.69
2.14
1.49
0.67
-0.26
-1.18
-1.99
-2.71
-3.43
-4.26
-5.27
-6.36
-7.43
-8.38
-9.28
-10.30
-11.57
-13.03
-14.42
-15.33
-15.41
-14.51
-12.72
-10.34
-7.69
-5.09
-2.72
-0.67
1.03
2.42
3.54
4.46
5.19
5.70
5.99
6.09
6.09
6.14
6.31
6.59
6.89
7.06
7.03
6.86
6.67
6.56
6.57
6.62
6.58
6.36
5.96
5.41
4.79
4.11
3.40
2.64
1.83
1.00
0.21
-0.54
-1.25
-1.94
-2.65
-3.35
-4.00
-4.60
-5.18
-5.82
-6.62
-7.66
-8.94
-10.40
-11.92
-13.33
-14.45
-15.07
-15.02
-14.17
-12.51
-10.22
-7.59
-4.98
-2.69
-0.85
0.58
1.74
2.78
3.77
4.66
5.39
5.89
6.16
6.26
6.28
6.30
6.36
6.45
6.60
6.79
7.07
7.42
7.80
8.06
8.05
7.69
7.00
6.12
5.25
4.49
3.89
3.42
3.05
2.76
2.54
2.32
1.94
1.20
0.01
-1.56
-3.28
-4.84
-6.04
-6.86
-7.42
-7.94
-8.57
-9.41
-10.47
-11.71
-12.97
-14.03
-14.57
-14.33
-13.20
-11.26
-8.82
-6.22
-3.78
-1.65
0.11
1.54
2.67
3.51
4.09
4.48
4.76
5.06
5.48
6.08
6.82
7.65
8.43
9.01
9.23
9.03
8.49
7.79
7.18
6.83
6.81
6.97
7.10
6.95
6.43
5.56
4.51
3.51
2.71
2.14
1.72
1.34
0.90
0.39
-0.16
-0.75
-1.40
-2.21
-3.22
-4.40
-5.61
-6.70
-7.62
-8.49
-9.54
-10.94
-12.65
-14.38
-15.65
-16.01
-15.23
-13.40
-10.87
-8.07
-5.38
-3.01
-1.00
0.68
2.09
3.25
4.18
4.95
5.60
6.20
6.78
7.31
7.73
7.99
8.10
8.14
8.20
8.33
8.51
8.73
8.89
8.96
8.91
8.71
8.33
7.73
6.91
5.92
4.88
3.90
3.09
2.46
1.97
1.46
0.79
-0.12
-1.21
-2.34
-3.34
-4.08
-4.62
-5.07
-5.59
-6.28
-7.17
-8.24
-9.52
-11.02
-12.72
-14.43
-15.76
-16.28
-15.65
-13.84
-11.18
-8.20
-5.45
-3.25
-1.63
-0.39
0.75
1.94
3.17
4.31
5.21
5.83
6.25
6.59
6.91
7.15
7.24
7.12
6.86
6.60
6.51
6.68
7.04
7.46
7.78
7.91
7.85
7.65
7.32
6.86
6.22
5.38
4.36
3.22
2.06
0.97
-0.04
-0.97
-1.90
-2.84
-3.80
-4.66
-5.34
-5.77
-6.06
-6.44
-7.14
-8.37
-10.11
-12.20
-14.33
-16.17
-17.39
-17.74
-17.08
-15.42
-12.96
-10.04
-7.08
-4.39
-2.11
-0.15
1.62
3.26
4.70
5.72
6.17
6.10
5.75
5.50
5.66
6.32
7.34
8.43
9.33
9.89
10.13
10.17
10.10
9.98
9.73
9.25
8.49
7.52
6.51
5.66
5.12
4.83
4.61
4.22
3.52
2.51
1.31
0.09
-1.05
-2.07
-2.97
-3.78
-4.51
-5.15
-5.76
-6.45
-7.35
-8.58
-10.13
-11.88
-13.57
-14.86
-15.44
-15.03
-13.61
-11.34
-8.59
-5.80
-3.32
-1.31
0.23
1.42
2.41
3.24
3.95
4.49
4.83
4.99
5.03
5.08
5.29
5.73
6.39
7.13
7.79
8.24
8.45
8.52
8.55
8.56
8.46
8.10
7.46
6.60
5.72
4.97
4.39
3.90
3.28
2.41
1.23
-0.23
-1.85
-3.47
-4.93
-6.15
-7.08
-7.83
-8.60
-9.61
-11.01
-12.73
-14.53
-16.04
-16.92
-16.98
-16.19
-14.68
-12.64
-10.30
-7.84
-5.43
-3.15
-1.06
0.86
2.63
4.24
5.63
6.71
7.42
7.75
7.82
7.80
7.87
8.11
8.50
8.90
9.15
9.16
8.97
8.70
8.41
8.13
7.78
7.24
6.46
5.49
4.46
3.47
2.57
1.70
0.77
-0.26
-1.31
-2.29
-3.11
-3.81
-4.49
-5.34
-6.47
-7.91
-9.59
-11.42
-13.26
-14.98
-16.41
-17.31
-17.41
-16.52
-14.63
-11.92
-8.75
-5.56
-2.68
-0.25
1.77
3.52
5.09
6.51
7.69
8.52
8.98
9.14
9.15
9.17
9.25
9.42
9.64
9.89
10.18
10.52
10.88
11.19
11.32
11.19
10.72
9.89
8.75
7.37
5.90
4.50
3.37
2.60
2.18
1.97
1.72
1.25
0.49
-0.51
-1.62
-2.70
-3.65
-4.53
-5.46
-6.60
-8.09
-9.96
-12.11
-14.29
-16.18
-17.46
-17.86
-17.27
-15.70
-13.32
-10.44
-7.41
-4.56
-2.13
-0.23
1.19
2.26
3.14
3.93
4.68
5.39
6.04
6.62
7.12
7.53
7.82
7.98
8.02
7.98
7.92
7.87
7.85
7.83
7.75
7.55
7.20
6.72
6.14
5.54
4.93
4.33
3.69
2.95
2.05
0.98
-0.20
-1.44
-2.59
-3.57
-4.29
-4.73
-5.02
-5.39
-6.13
-7.50
-9.59
-12.21
-14.97
-17.28
-18.58
-18.51
-17.02
-14.38
-11.14
-7.85
-4.94
-2.57
-0.66
0.96
2.46
3.87
5.09
6.02
6.66
7.11
7.52
8.01
8.61
9.24
9.80
10.21
10.43
10.48
10.39
10.16
9.84
9.46
9.04
8.57
8.02
7.32
6.44
5.44
4.47
3.69
3.23
3.09
3.17
3.25
3.13
2.66
1.80
0.65
-0.61
-1.78
-2.78
-3.60
-4.38
-5.27
-6.38
-7.75
-9.38
-11.25
-13.34
-15.52
-17.53
-18.95
-19.33
-18.33
-15.95
-12.54
-8.76
-5.28
-2.62
-0.90
0.06
0.67
1.30
2.19
3.35
4.61
5.73
6.55
7.02
7.27
7.45
7.70
8.06
8.46
8.78
8.93
8.92
8.85
8.83
8.91
9.08
9.24
9.27
9.09
8.67
8.05
7.27
6.40
5.51
4.68
3.97
3.38
2.85
2.24
1.42
0.34
-0.86
-1.97
-2.79
-3.25
-3.50
-3.83
-4.48
-5.60
-7.20
-9.16
-11.27
-13.28
-14.87
-15.70
-15.49
-14.10
-11.69
-8.57
-5.25
-2.18
0.31
2.14
3.36
4.18
4.81
5.40
5.99
6.54
6.99
7.32
7.59
7.87
8.22
8.60
8.93
9.11
9.13
9.05
8.93
8.78
8.57
8.19
7.64
6.95
6.24
5.59
5.04
4.55
4.04
3.49
2.93
2.39
1.93
1.54
1.17
0.73
0.14
-0.64
-1.61
-2.69
-3.81
-4.85
-5.75
-6.51
-7.21
-7.99
-8.98
-10.25
-11.78
-13.40
-14.84
-15.77
-15.86
-14.93
-12.94
-10.11
-6.81
-3.49
-0.55
1.74
3.34
4.37
5.03
5.54
6.04
6.59
7.14
7.63
8.01
8.28
8.51
8.72
8.92
9.04
8.99
8.74
8.32
7.84
7.40
7.07
6.84
6.65
6.40
6.02
5.49
4.79
3.96
3.10
2.25
1.43
0.62
-0.31
-1.43
-2.71
-4.02
-5.14
-5.89
-6.26
-6.39
-6.58
-7.15
-8.32
-10.09
-12.27
-14.48
-16.29
-17.29
-17.23
-16.02
-13.83
-11.02
-7.99
-5.13
-2.67
-0.66
0.98
2.40
3.65
4.70
5.45
5.82
5.85
5.71
5.65
5.86
6.39
7.10
7.75
8.15
8.18
7.88
7.40
6.90
6.50
6.23
6.08
5.95
5.73
5.32
4.71
3.95
3.10
2.19
1.24
0.19
-0.97
-2.24
-3.59
-4.97
-6.35
-7.68
-8.97
-10.21
-11.39
-12.52
-13.55
-14.36
-14.73
-14.42
-13.26
-11.26
-8.66
-5.82
-3.15
-0.88
0.91
2.31
3.43
4.30
4.93
5.27
5.35
5.24
5.11
5.13
5.39
5.87
6.45
6.96
7.23
7.20
6.89
6.40
5.88
5.45
5.17
5.02
4.93
4.82
4.59
4.19
3.60
2.82
1.87
0.78
-0.39
-1.60
-2.78
-3.88
-4.85
-5.71
-6.52
-7.40
-8.50
-9.93
-11.68
-13.63
-15.45
-16.77
-17.24
-16.69
-15.15
-12.85
-10.14
-7.37
-4.81
-2.61
-0.78
0.72
1.96
3.04
4.06
5.07
6.09
7.12
8.06
8.82
9.33
9.55
9.50
9.25
8.86
8.42
8.01
7.72
7.59
7.57
7.52
7.30
6.78
5.97
4.98
3.99
3.13
2.43
1.83
1.23
0.53
-0.31
-1.29
-2.40
-3.64
-4.97
-6.32
-7.70
-9.13
-10.72
-12.54
-14.52
-16.40
-17.75
-18.13
-17.28
-15.25
-12.37
-9.15
-6.06
-3.42
-1.33
0.29
1.59
2.69
3.66
4.53
5.36
6.21
7.13
8.14
9.15
9.99
10.52
10.69
10.58
10.37
10.19
10.08
9.96
9.71
9.28
8.68
7.98
7.25
6.52
5.81
5.11
4.46
3.87
3.34
2.82
2.19
1.35
0.30
-0.92
-2.18
-3.36
-4.44
-5.53
-6.75
-8.25
-10.07
-12.10
-14.14
-15.92
-17.21
-17.83
-17.67
-16.69
-14.91
-12.45
-9.55
-6.57
-3.85
-1.62
0.06
1.32
2.33
3.25
4.13
4.92
5.56
6.07
6.53
7.02
7.61
8.25
8.83
9.21
9.34
9.23
9.01
8.82
8.73
8.69
8.59
8.26
7.62
6.78
5.92
5.23
4.77
4.40
3.90
3.06
1.82
0.32
-1.19
-2.49
-3.50
-4.27
-4.96
-5.75
-6.80
-8.21
-9.98
-12.02
-14.12
-15.94
-17.16
-17.48
-16.78
-15.13
-12.74
-9.91
-6.96
-4.14
-1.62
0.52
2.22
3.47
4.31
4.84
5.21
5.64
6.28
7.17
8.20
9.18
9.96
10.45
10.68
10.75
10.73
10.66
10.53
10.33
10.06
9.73
9.36
8.91
8.35
7.69
6.97
6.28
5.68
5.16
4.62
3.89
2.83
1.43
-0.16
-1.69
-2.90
-3.66
-4.07
-4.40
-5.01
-6.13
-7.82
-9.97
-12.32
-14.63
-16.67
-18.23
-19.05
-18.91
-17.66
-15.37
-12.32
-8.97
-5.80
-3.18
-1.27
0.01
0.88
1.61
2.40
3.33
4.37
5.45
6.45
7.33
8.07
8.66
9.12
9.45
9.68
9.89
10.18
10.60
11.13
11.62
11.88
11.77
11.23
10.33
9.24
8.13
7.18
6.45
5.97
5.69
5.46
5.13
4.50
3.47
2.04
0.38
-1.29
-2.72
-3.78
-4.49
-4.97
-5.46
-6.19
-7.34
-8.98
-11.00
-13.21
-15.30
-16.91
-17.67
-17.34
-15.85
-13.37
-10.30
-7.15
-4.41
-2.35
-0.96
-0.02
0.79
1.71
2.84
4.12
5.39
6.53
7.45
8.12
8.51
8.62
8.51
8.29
8.13
8.18
8.49
9.04
9.67
10.16
10.31
10.01
9.27
8.21
7.04
5.98
5.16
4.62
4.25
3.88
3.35
2.55
1.49
0.26
-1.03
-2.27
-3.40
-4.41
-5.35
-6.31
-7.40
-8.66
-10.09
-11.61
-13.09
-14.36
-15.25
-15.56
-15.13
-13.87
-11.82
-9.23
-6.45
-3.89
-1.86
-0.45
0.42
1.00
1.54
2.25
3.18
4.30
5.47
6.56
7.48
8.17
8.65
8.93
9.05
9.04
8.92
8.74
8.56
8.40
8.26
8.07
7.74
7.19
6.44
5.59
4.75
4.02
3.38
2.76
2.06
1.21
0.21
-0.84
-1.83
-2.70
-3.44
-4.13
-4.91
-5.92
-7.31
-9.13
-11.32
-13.66
-15.82
-17.40
-18.08
-17.70
-16.32
-14.22
-11.73
-9.16
-6.67
-4.34
-2.18
-0.25
1.40
2.71
3.72
4.54
5.32
6.14
6.98
7.70
8.17
8.32
8.25
8.13
8.16
8.43
8.89
9.37
9.70
9.77
9.63
9.35
9.04
8.68
8.17
7.38
6.30
5.06
3.95
3.19
2.83
2.73
2.54
1.98
0.91
-0.55
-2.17
-3.70
-5.02
-6.17
-7.33
-8.66
-10.26
-12.15
-14.20
-16.22
-17.91
-18.99
-19.21
-18.45
-16.75
-14.34
-11.53
-8.71
-6.14
-4.04
-2.43
-1.25
-0.37
0.36
1.07
1.88
2.83
3.91
5.08
6.27
7.45
8.57
9.56
10.35
10.84
10.96
10.74
10.27
9.72
9.24
8.91
8.72
8.57
8.33
7.94
7.44
6.90
6.41
6.00
5.57
5.02
4.24
3.19
1.97
0.70
-0.48
-1.51
-2.45
-3.43
-4.60
-6.05
-7.82
-9.84
-11.97
-13.97
-15.56
-16.44
-16.38
-15.35
-13.54
-11.29
-8.98
-6.85
-4.91
-3.05
-1.16
0.76
2.55
3.98
4.95
5.49
5.80
6.11
6.59
7.27
8.09
8.92
9.65
10.18
10.45
10.47
10.29
10.01
9.69
9.35
8.94
8.42
7.76
7.02
6.31
5.71
5.26
4.93
4.60
4.17
3.57
2.75
1.74
0.59
-0.60
-1.77
-2.90
-4.03
-5.20
-6.46
-7.80
-9.24
-10.80
-12.52
-14.38
-16.21
-17.72
-18.51
-18.28
-16.97
-14.77
-12.10
-9.36
-6.89
-4.78
-3.04
-1.56
-0.27
0.89
1.93
2.87
3.70
4.44
5.09
5.65
6.19
6.74
7.33
7.92
8.46
8.86
9.09
9.16
9.12
8.99
8.79
8.52
8.21
7.86
7.51
7.13
6.70
6.16
5.51
4.78
4.03
3.29
2.54
1.68
0.63
-0.62
-1.99
-3.30
-4.40
-5.26
-5.96
-6.74
-7.81
-9.34
-11.30
-13.53
-15.79
-17.81
-19.39
-20.33
-20.48
-19.73
-18.07
-15.65
-12.75
-9.72
-6.84
-4.26
-1.96
0.13
2.14
4.05
5.78
7.24
8.35
9.14
9.74
10.27
10.84
11.47
12.08
12.55
12.79
12.77
12.59
12.36
12.21
12.14
12.06
11.84
11.42
10.80
10.11
9.45
8.86
8.28
7.61
6.76
5.74
4.57
3.34
2.12
0.95
-0.10
-0.99
-1.71
-2.28
-2.81
-3.46
-4.39
-5.70
-7.42
-9.51
-11.85
-14.27
-16.52
-18.32
-19.35
-19.39
-18.35
-16.34
-13.63
-10.58
-7.57
-4.86
-2.61
-0.84
0.54
1.64
2.55
3.34
4.08
4.79
5.52
6.28
7.07
7.85
8.59
9.25
9.81
10.24
10.49
10.54
10.40
10.15
9.89
9.73
9.69
9.71
9.64
9.35
8.81
8.01
7.07
6.11
5.20
4.39
3.69
3.06
2.44
1.76
1.00
0.17
-0.70
-1.60
-2.56
-3.61
-4.81
-6.15
-7.60
-9.14
-10.80
-12.52
-14.21
-15.60
-16.35
-16.16
-14.95
-12.94
-10.58
-8.38
-6.66
-5.43
-4.48
-3.52
-2.39
-1.09
0.18
1.21
1.91
2.35
2.70
3.16
3.79
4.54
5.27
5.85
6.24
6.46
6.62
6.77
6.94
7.05
7.00
6.68
6.06
5.18
4.21
3.33
2.69
2.33
2.19
2.07
1.79
1.23
0.38
-0.69
-1.84
-3.00
-4.08
-5.07
-5.98
-6.88
-7.87
-9.07
-10.53
-12.14
-13.66
-14.71
-14.98
-14.30
-12.74
-10.50
-7.90
-5.22
-2.65
-0.35
1.60
3.14
4.24
4.92
5.27
5.43
5.57
5.83
6.27
6.83
7.40
7.82
8.03
8.07
8.03
8.06
8.21
8.43
8.57
8.50
8.15
7.54
6.79
6.02
5.29
4.61
3.90
3.08
2.09
0.93
-0.30
-1.45
-2.38
-3.02
-3.44
-3.81
-4.36
-5.29
-6.69
-8.56
-10.79
-13.16
-15.41
-17.21
-18.24
-18.24
-17.16
-15.13
-12.47
-9.55
-6.71
-4.18
-2.06
-0.35
1.03
2.12
3.01
3.75
4.40
5.00
5.59
6.21
6.86
7.52
8.08
8.45
8.52
8.31
7.94
7.59
7.43
7.53
7.77
7.97
7.93
7.55
6.89
6.09
5.30
4.61
4.01
3.42
2.76
1.98
1.09
0.17
-0.74
-1.60
-2.43
-3.27
-4.19
-5.28
-6.60
-8.18
-10.01
-12.01
-14.01
-15.80
-17.14
-17.83
-17.73
-16.85
-15.29
-13.24
-10.92
-8.51
-6.14
-3.92
-1.90
-0.17
1.21
2.22
2.95
3.54
4.16
4.91
5.77
6.62
7.34
7.87
8.26
8.63
9.08
9.59
10.06
10.36
10.40
10.19
9.81
9.38
8.95
8.50
8.01
7.43
6.77
6.02
5.15
4.12
2.84
1.31
-0.43
-2.22
-3.84
-5.14
-6.10
-6.84
-7.63
-8.75
-10.34
-12.31
-14.33
-15.98
-16.88
-16.82
-15.83
-14.11
-11.91
-9.48
-7.01
-4.69
-2.63
-0.95
0.34
1.31
2.09
2.81
3.58
4.42
5.29
6.11
6.79
7.30
7.63
7.84
8.01
8.24
8.57
8.96
9.33
9.56
9.59
9.41
9.08
8.69
8.31
7.98
7.68
7.37
7.01
6.55
5.96
5.24
4.37
3.33
2.11
0.73
-0.70
-2.04
-3.14
-3.99
-4.72
-5.60
-6.93
-8.86
-11.32
-13.98
-16.38
-18.03
-18.63
-18.08
-16.52
-14.28
-11.71
-9.11
-6.72
-4.64
-2.90
-1.53
-0.48
0.31
0.94
1.57
2.37
3.43
4.74
6.17
7.51
8.59
9.28
9.56
9.50
9.22
8.92
8.75
8.82
9.09
9.44
9.67
9.65
9.33
8.73
7.98
7.16
6.33
5.49
4.62
3.70
2.69
1.62
0.50
-0.63
-1.73
-2.77
-3.78
-4.82
-6.01
-7.44
-9.15
-11.12
-13.22
-15.28
-17.03
-18.19
-18.46
-17.67
-15.83
-13.18
-10.15
-7.16
-4.57
-2.48
-0.81
0.65
2.06
3.45
4.74
5.77
6.41
6.69
6.78
6.93
7.35
8.09
8.98
9.79
10.30
10.48
10.48
10.51
10.70
11.03
11.26
11.14
10.57
9.58
8.40
7.25
6.30
5.54
4.89
4.20
3.39
2.44
1.37
0.26
-0.86
-1.97
-3.06
-4.17
-5.29
-6.39
-7.47
-8.60
-9.92
-11.60
-13.70
-16.09
-18.40
-20.07
-20.60
-19.71
-17.46
-14.23
-10.60
-7.13
-4.18
-1.90
-0.22
1.05
2.12
3.14
4.15
5.17
6.17
7.14
8.06
8.91
9.64
10.17
10.48
10.63
10.75
10.97
11.35
11.80
12.13
12.15
11.77
11.02
10.07
9.09
8.22
7.54
7.05
6.68
6.32
5.83
5.08
3.98
2.56
0.94
-0.68
-2.13
-3.33
-4.33
-5.25
-6.25
-7.49
-9.03
-10.91
-13.02
-15.23
-17.29
-18.90
-19.80
-19.77
-18.74
-16.80
-14.20
-11.28
-8.38
-5.74
-3.52
-1.70
-0.18
1.18
2.52
3.86
5.15
6.25
7.10
7.70
8.20
8.76
9.49
10.33
11.13
11.71
11.97
11.94
11.78
11.60
11.48
11.34
11.10
10.70
10.14
9.48
8.77
8.03
7.21
6.26
5.16
3.98
2.79
1.71
0.77
-0.08
-0.96
-1.94
-3.05
-4.21
-5.30
-6.28
-7.23
-8.38
-9.97
-12.12
-14.70
-17.34
-19.51
-20.75
-20.78
-19.62
-17.52
-14.86
-11.99
-9.17
-6.53
-4.15
-2.02
-0.17
1.39
2.68
3.72
4.56
5.25
5.87
6.50
7.19
7.99
8.84
9.63
10.22
10.51
10.53
10.41
10.33
10.40
10.61
10.82
10.82
10.49
9.78
8.82
7.76
6.76
5.93
5.32
4.91
4.62
4.33
3.88
3.13
2.01
0.56
-1.06
-2.68
-4.14
-5.35
-6.33
-7.19
-8.10
-9.26
-10.81
-12.77
-14.99
-17.16
-18.89
-19.82
-19.71
-18.51
-16.36
-13.55
-10.45
-7.42
-4.76
-2.61
-0.98
0.29
1.38
2.45
3.54
4.64
5.73
6.82
7.93
9.00
9.92
10.53
10.72
10.52
10.13
9.78
9.65
9.78
10.10
10.38
10.43
10.12
9.42
8.42
7.27
6.15
5.21
4.51
3.98
3.49
2.94
2.24
1.40
0.48
-0.47
-1.43
-2.39
-3.37
-4.38
-5.45
-6.61
-7.94
-9.51
-11.35
-13.41
-15.46
-17.17
-18.15
-18.08
-16.85
-14.58
-11.63
-8.48
-5.52
-3.00
-0.98
0.56
1.72
2.56
3.18
3.70
4.20
4.78
5.43
6.11
6.75
7.31
7.77
8.17
8.54
8.90
9.26
9.58
9.82
9.87
9.67
9.16
8.38
7.42
6.39
5.39
4.45
3.61
2.88
2.28
1.82
1.42
0.97
0.37
-0.44
-1.43
-2.51
-3.64
-4.81
-6.06
-7.39
-8.81
-10.27
-11.81
-13.49
-15.36
-17.35
-19.18
-20.42
-20.68
-19.76
-17.77
-15.09
-12.24
-9.66
-7.53
-5.81
-4.28
-2.72
-1.05
0.67
2.26
3.55
4.51
5.26
5.97
6.74
7.52
8.21
8.65
8.81
8.80
8.76
8.77
8.79
8.74
8.52
8.13
7.64
7.11
6.56
5.96
5.28
4.55
3.84
3.23
2.73
2.24
1.63
0.76
-0.45
-1.94
-3.56
-5.12
-6.49
-7.63
-8.70
-9.89
-11.41
-13.36
-15.70
-18.23
-20.65
-22.66
-24.04
-24.56
-24.08
-22.49
-19.82
-16.25
-12.16
-8.04
-4.37
-1.45
0.65
2.15
3.35
4.57
5.92
7.36
8.71
9.84
10.74
11.47
12.19
12.92
13.62
14.19
14.57
14.82
15.06
15.38
15.76
16.06
16.08
15.66
14.75
13.51
12.19
11.02
10.16
9.65
9.37
9.11
8.66
7.86
6.64
5.11
3.45
1.87
0.49
-0.66
-1.67
-2.70
-3.93
-5.50
-7.45
-9.69
-11.99
-13.97
-15.23
-15.41
-14.29
-11.91
-8.59
-4.87
-1.37
1.32
2.83
3.10
2.37
1.10
-0.18
-1.10
-1.48
-1.38
-0.98
-0.37
0.44
1.50
2.80
4.20
5.47
6.38
6.87
7.09
7.35
7.87
8.68
9.56
10.15
10.15
9.52
8.46
7.32
6.40
5.76
5.27
4.66
3.77
2.61
1.30
0.07
-0.97
-1.80
-2.49
-3.15
-3.92
-4.91
-6.24
-7.97
-10.07
-12.33
-14.41
-15.93
-16.57
-16.17
-14.80
-12.66
-10.08
-7.43
-5.01
-3.03
-1.54
-0.45
0.43
1.30
2.26
3.30
4.33
5.20
5.85
6.25
6.48
6.69
6.99
7.43
7.94
8.37
8.57
8.46
8.11
7.66
7.28
7.00
6.78
6.45
5.88
5.02
3.93
2.75
1.62
0.58
-0.44
-1.54
-2.82
-4.28
-5.82
-7.36
-8.84
-10.35
-11.95
-13.63
-15.17
-16.26
-16.56
-15.89
-14.29
-12.02
-9.39
-6.68
-4.07
-1.68
0.40
2.13
3.52
4.66
5.66
6.55
7.29
7.76
7.91
7.82
7.73
7.88
8.35
9.05
9.71
10.07
10.01
9.56
8.88
8.17
7.51
6.92
6.31
5.61
4.75
3.76
2.70
1.67
0.71
-0.18
-1.10
-2.18
-3.48
-4.98
-6.59
-8.19
-9.77
-11.42
-13.25
-15.28
-17.31
-18.92
-19.67
-19.25
-17.67
-15.20
-12.28
-9.34
-6.59
-4.12
-1.88
0.14
1.89
3.32
4.43
5.32
6.16
7.06
8.03
8.94
9.65
10.09
10.35
10.59
10.96
11.47
11.98
12.29
12.23
11.76
10.96
9.95
8.84
7.71
6.63
5.64
4.76
3.95
3.12
2.15
1.01
-0.25
-1.49
-2.62
-3.66
-4.78
-6.23
-8.17
-10.59
-13.26
-15.82
-17.90
-19.16
-19.44
-18.70
-17.03
-14.63
-11.78
-8.78
-5.90
-3.33
-1.14
0.72
2.36
3.92
5.48
7.03
8.53
9.86
10.93
11.69
12.13
12.28
12.24
12.12
12.05
12.13
12.36
12.69
12.96
12.98
12.60
11.82
10.69
9.40
8.14
7.05
6.22
5.62
5.13
4.59
3.85
2.82
1.53
0.09
-1.36
-2.69
-3.89
-5.04
-6.31
-7.85
-9.77
-12.10
-14.74
-17.48
-19.98
-21.87
-22.78
-22.49
-21.02
-18.63
-15.70
-12.63
-9.71
-7.03
-4.57
-2.25
-0.04
1.97
3.69
5.06
6.09
6.90
7.66
8.46
9.31
10.11
10.76
11.19
11.45
11.68
12.02
12.52
13.08
13.50
13.54
13.05
12.06
10.80
9.52
8.43
7.56
6.74
5.77
4.53
3.04
1.53
0.21
-0.79
-1.53
-2.22
-3.08
-4.21
-5.61
-7.19
-8.93
-10.86
-13.05
-15.47
-17.89
-19.89
-21.03
-20.97
-19.70
-17.44
-14.58
-11.49
-8.45
-5.60
-2.99
-0.64
1.44
3.24
4.73
5.91
6.78
7.39
7.83
8.29
8.93
9.82
10.90
11.93
12.68
12.99
12.90
12.56
12.18
11.88
11.69
11.53
11.29
10.87
10.22
9.31
8.19
6.91
5.55
4.20
2.95
1.85
0.93
0.14
-0.62
-1.46
-2.46
-3.63
-4.91
-6.24
-7.58
-8.98
-10.58
-12.46
-14.64
-17.01
-19.36
-21.43
-22.95
-23.71
-23.53
-22.33
-20.13
-17.11
-13.56
-9.86
-6.37
-3.40
-1.06
0.67
1.97
3.08
4.19
5.44
6.84
8.31
9.75
11.05
12.18
13.10
13.85
14.49
15.09
15.70
16.33
16.88
17.23
17.23
16.79
15.91
14.69
13.27
11.78
10.38
9.14
8.14
7.36
6.73
6.12
5.36
4.33
3.02
1.52
-0.04
-1.52
-2.87
-4.11
-5.31
-6.57
-7.99
-9.66
-11.64
-13.86
-16.14
-18.13
-19.47
-19.83
-19.04
-17.19
-14.54
-11.49
-8.42
-5.62
-3.25
-1.28
0.38
1.84
3.17
4.37
5.40
6.22
6.89
7.51
8.20
8.99
9.81
10.53
11.04
11.33
11.46
11.55
11.70
11.88
12.03
12.01
11.75
11.20
10.41
9.49
8.54
7.65
6.84
6.11
5.45
4.80
4.13
3.36
2.44
1.35
0.13
-1.14
-2.38
-3.55
-4.69
-5.84
-7.06
-8.37
-9.80
-11.39
-13.20
-15.25
-17.38
-19.29
-20.54
-20.74
-19.74
-17.68
-14.92
-11.91
-9.01
-6.43
-4.21
-2.33
-0.76
0.53
1.59
2.49
3.36
4.33
5.43
6.62
7.70
8.49
8.85
8.82
8.56
8.35
8.42
8.86
9.57
10.30
10.75
10.69
10.06
8.96
7.65
6.38
5.33
4.50
3.78
3.01
2.10
1.07
0.05
-0.84
-1.55
-2.15
-2.81
-3.71
-4.99
-6.68
-8.73
-11.00
-13.28
-15.33
-16.92
-17.84
-17.96
-17.25
-15.75
-13.59
-10.99
-8.24
-5.68
-3.53
-1.86
-0.58
0.55
1.70
2.94
4.18
5.27
6.09
6.68
7.13
7.58
8.09
8.63
9.11
9.44
9.57
9.51
9.32
9.04
8.73
8.41
8.07
7.68
7.20
6.64
6.04
5.50
5.05
4.61
3.98
2.94
1.45
-0.34
-2.06
-3.37
-4.14
-4.46
-4.66
-5.12
-6.07
-7.59
-9.56
-11.78
-13.95
-15.76
-16.91
-17.16
-16.44
-14.91
-12.86
-10.66
-8.53
-6.60
-4.84
-3.19
-1.64
-0.18
1.14
2.32
3.36
4.27
5.05
5.70
6.22
6.62
6.93
7.19
7.40
7.57
7.70
7.81
7.91
8.03
8.10
8.05
7.75
7.15
6.31
5.42
4.65
4.13
3.81
3.51
3.00
2.17
1.06
-0.14
-1.21
-2.07
-2.80
-3.62
-4.72
-6.24
-8.15
-10.35
-12.67
-14.91
-16.81
-18.06
-18.41
-17.74
-16.13
-13.81
-11.13
-8.38
-5.80
-3.49
-1.51
0.09
1.31
2.18
2.81
3.32
3.79
4.25
4.68
5.08
5.47
5.91
6.42
6.95
7.43
7.77
7.93
7.90
7.72
7.40
6.93
6.31
5.55
4.68
3.76
2.83
1.91
1.00
0.08
-0.88
-1.91
-3.02
-4.20
-5.44
-6.70
-7.99
-9.35
-10.83
-12.47
-14.20
-15.92
-17.38
-18.32
-18.50
-17.75
-16.09
-13.71
-10.94
-8.15
-5.61
-3.46
-1.66
-0.09
1.33
2.58
3.64
4.47
5.09
5.59
6.04
6.50
6.97
7.49
8.06
8.71
9.38
9.95
10.29
10.29
9.94
9.35
8.64
7.90
7.14
6.30
5.34
4.25
3.07
1.87
0.73
-0.27
-1.13
-1.86
-2.61
-3.53
-4.79
-6.47
-8.55
-10.88
-13.23
-15.35
-16.95
-17.83
-17.80
-16.80
-14.88
-12.26
-9.26
-6.20
-3.39
-0.99
0.92
2.35
3.39
4.15
4.75
5.32
5.92
6.57
7.27
7.96
8.60
9.14
9.52
9.70
9.63
9.34
8.89
8.39
7.96
7.65
7.46
7.33
7.12
6.72
6.06
5.13
3.98
2.70
1.35
-0.03
-1.43
-2.83
-4.17
-5.37
-6.41
-7.42
-8.58
-10.10
-12.03
-14.23
-16.33
-17.86
-18.44
-17.88
-16.27
-13.85
-10.97
-7.95
-5.02
-2.36
-0.02
1.94
3.54
4.80
5.78
6.54
7.16
7.67
8.11
8.48
8.81
9.12
9.42
9.70
9.88
9.86
9.55
8.95
8.15
7.25
6.40
5.65
5.03
4.48
3.96
3.39
2.73
1.94
1.03
0.04
-0.98
-1.98
-3.00
-4.17
-5.62
-7.47
-9.72
-12.22
-14.73
-16.91
-18.48
-19.18
-18.87
-17.54
-15.32
-12.49
-9.42
-6.47
-3.88
-1.72
0.13
1.82
3.51
5.17
6.71
7.98
8.88
9.44
9.72
9.85
9.91
9.96
10.02
10.14
10.31
10.52
10.66
10.58
10.18
9.44
8.50
7.54
6.72
6.09
5.59
5.05
4.37
3.50
2.49
1.39
0.23
-1.00
-2.32
-3.69
-5.05
-6.35
-7.62
-8.98
-10.60
-12.57
-14.80
-17.03
-18.82
-19.74
-19.47
-17.93
-15.29
-11.97
-8.50
-5.34
-2.77
-0.78
0.89
2.58
4.47
6.49
8.40
9.89
10.77
11.10
11.08
10.97
10.93
11.00
11.12
11.25
11.32
11.34
11.29
11.14
10.89
10.54
10.10
9.58
8.96
8.21
7.33
6.33
5.28
4.20
3.09
1.88
0.52
-0.97
-2.50
-3.89
-5.04
-5.93
-6.71
-7.60
-8.84
-10.62
-12.92
-15.56
-18.16
-20.25
-21.38
-21.28
-19.88
-17.39
-14.18
-10.72
-7.42
-4.55
-2.19
-0.28
1.33
2.81
4.24
5.61
6.87
7.94
8.75
9.29
9.57
9.62
9.49
9.30
9.19
9.29
9.64
10.17
10.70
11.05
11.09
10.75
10.05
9.03
7.77
6.37
4.99
3.76
2.79
2.05
1.41
0.72
-0.17
-1.25
-2.46
-3.70
-4.89
-6.06
-7.30
-8.75
-10.48
-12.49
-14.67
-16.80
-18.59
-19.76
-20.08
-19.41
-17.74
-15.18
-11.99
-8.51
-5.10
-2.07
0.42
2.33
3.76
4.87
5.85
6.81
7.84
8.97
10.12
11.22
12.12
12.70
12.87
12.67
12.22
11.69
11.23
10.92
10.69
10.44
10.04
9.48
8.79
8.06
7.36
6.66
5.89
4.96
3.84
2.62
1.41
0.26
-0.85
-2.02
-3.32
-4.69
-6.00
-7.08
-7.94
-8.76
-9.87
-11.55
-13.87
-16.57
-19.21
-21.26
-22.36
-22.31
-21.13
-18.98
-16.12
-12.82
-9.38
-6.05
-3.02
-0.38
1.91
3.88
5.61
7.10
8.35
9.35
10.10
10.68
11.14
11.55
11.94
12.30
12.61
12.89
13.18
13.50
13.84
14.11
14.16
13.85
13.14
12.12
10.96
9.82
8.75
7.69
6.53
5.23
3.83
2.48
1.32
0.39
-0.39
-1.18
-2.11
-3.23
-4.49
-5.84
-7.26
-8.86
-10.73
-12.91
-15.27
-17.46
-19.05
-19.60
-18.89
-17.01
-14.31
-11.24
-8.26
-5.63
-3.37
-1.38
0.50
2.31
4.01
5.48
6.64
7.49
8.14
8.74
9.39
10.12
10.87
11.51
11.95
12.20
12.33
12.48
12.72
13.06
13.35
13.43
13.19
12.62
11.82
10.93
10.08
9.25
8.38
7.38
6.17
4.78
3.31
1.86
0.56
-0.58
-1.57
-2.50
-3.44
-4.46
-5.59
-6.88
-8.35
-10.03
-11.90
-13.82
-15.51
-16.65
-16.92
-16.19
-14.51
-12.16
-9.47
-6.77
-4.30
-2.17
-0.41
1.02
2.24
3.36
4.48
5.67
6.88
8.02
8.97
9.62
9.97
10.10
10.14
10.26
10.53
10.95
11.43
11.84
12.05
11.96
11.50
10.66
9.47
8.03
6.49
5.05
3.82
2.84
1.97
0.99
-0.31
-1.97
-3.85
-5.72
-7.35
-8.68
-9.84
-11.06
-12.54
-14.37
-16.43
-18.46
-20.15
-21.19
-21.36
-20.62
-19.06
-16.91
-14.48
-12.02
-9.75
-7.74
-6.02
-4.53
-3.20
-1.95
-0.69
0.66
2.08
3.48
4.70
5.58
6.07
6.25
6.34
6.54
6.96
7.53
8.07
8.32
8.16
7.62
6.85
6.07
5.43
4.97
4.62
4.25
3.79
3.25
2.65
2.01
1.29
0.42
-0.68
-2.01
-3.53
-5.19
-6.96
-8.88
-11.04
-13.43
-15.90
-18.11
-19.60
-19.97
-19.00
-16.80
-13.78
-10.48
-7.37
-4.74
-2.61
-0.84
0.74
2.19
3.47
4.50
5.23
5.73
6.09
6.43
6.85
7.38
7.99
8.66
9.34
9.96
10.43
10.69
10.71
10.47
10.03
9.43
8.75
8.05
7.37
6.72
6.07
5.34
4.43
3.31
2.04
0.72
-0.49
-1.49
-2.30
-3.03
-3.84
-4.89
-6.31
-8.17
-10.46
-13.07
-15.75
-18.13
-19.82
-20.46
-19.88
-18.09
-15.37
-12.10
-8.73
-5.64
-3.02
-0.92
0.80
2.31
3.74
5.16
6.52
7.71
8.65
9.31
9.71
9.91
9.99
10.02
10.12
10.33
10.72
11.25
11.84
12.34
12.59
12.50
12.08
11.42
10.63
9.83
9.03
8.18
7.18
6.03
4.75
3.47
2.31
1.32
0.44
-0.47
-1.56
-2.89
-4.48
-6.28
-8.21
-10.21
-12.20
-14.06
-15.63
-16.71
-17.07
-16.55
-15.06
-12.69
-9.67
-6.37
-3.24
-0.61
1.33
2.62
3.47
4.11
4.75
5.45
6.21
6.97
7.68
8.30
8.79
9.13
9.34
9.46
9.54
9.65
9.78
9.89
9.88
9.66
9.19
8.53
7.78
7.08
6.47
5.94
5.36
4.55
3.39
1.86
0.08
-1.75
-3.40
-4.73
-5.73
-6.55
-7.42
-8.61
-10.27
-12.40
-14.79
-17.07
-18.82
-19.68
-19.51
-18.34
-16.38
-13.92
-11.24
-8.53
-5.92
-3.47
-1.25
0.71
2.39
3.78
4.88
5.73
6.40
6.95
7.45
7.93
8.37
8.72
8.93
8.99
8.93
8.81
8.67
8.53
8.39
8.23
7.99
7.62
7.03
6.16
4.99
3.53
1.94
0.37
-1.02
-2.16
-3.08
-3.90
-4.81
-5.99
-7.55
-9.57
-12.04
-14.80
-17.54
-19.86
-21.34
-21.62
-20.54
-18.19
-14.91
-11.17
-7.47
-4.17
-1.43
0.84
2.82
4.70
6.52
8.19
9.52
10.36
10.70
10.66
10.49
10.41
10.53
10.83
11.17
11.39
11.37
11.08
10.56
9.90
9.17
8.42
7.64
6.78
5.82
4.75
3.59
2.39
1.22
0.13
-0.87
-1.81
-2.79
-3.88
-5.19
-6.75
-8.59
-10.68
-12.97
-15.39
-17.75
-19.78
-21.14
-21.48
-20.62
