1607667694.00
64.000000
-0.00
-0.00
-0.00
-0.00
-0.00
-0.00
-0.00
-0.00
-0.00
-0.00
0.00
0.01
0.01
-0.00
-0.03
-0.05
-0.05
0.00
0.13
0.36
0.66
1.01
1.37
1.72
2.06
2.40
2.79
3.24
3.80
4.42
5.06
5.66
6.20
6.68
7.15
7.68
8.31
9.14
10.09
11.04
11.88
12.56
13.14
13.76
14.65
15.96
17.91
20.32
22.90
25.38
27.58
29.57
31.68
34.32
37.81
42.54
48.15
54.10
59.83
64.97
69.58
74.14
79.34
85.71
93.76
103.00
112.62
121.73
129.77
136.75
143.30
150.75
157.77
166.64
177.95
191.79
206.97
220.57
228.25
225.36
208.53
176.87
132.76
80.05
23.07
-34.94
-92.44
-149.16
-205.23
-260.37
-313.74
-363.87
-409.83
-450.91
-486.50
-515.74
-537.23
-549.22
-549.96
-538.37
-514.21
-478.67
-433.88
-382.45
-327.02
-269.84
-212.63
-156.66
-102.95
-52.37
-5.90
35.58
71.43
101.35
125.50
144.38
158.69
169.15
176.37
180.75
182.57
182.07
179.51
175.23
169.65
163.18
156.15
148.81
141.30
133.69
126.02
118.33
110.69
103.17
95.83
88.72
81.85
75.23
68.87
62.77
56.97
51.51
46.40
41.65
37.23
33.10
29.24
25.63
22.27
19.19
16.42
13.95
11.80
9.90
8.19
6.62
5.16
3.83
2.67
1.73
1.06
0.61
0.27
-0.10
-0.62
-1.33
-2.17
-2.95
-3.50
-3.72
-3.63
-3.46
-3.49
-3.96
-4.94
-6.26
-7.59
-8.53
-8.88
-8.68
-8.29
-8.20
-8.82
-10.28
-12.30
-14.35
-15.89
-16.59
-16.50
-16.02
-15.68
-15.97
-17.22
-19.60
-23.08
-27.17
-30.74
-32.14
-29.59
-22.09
-10.08
4.44
18.51
29.36
35.54
37.27
36.03
33.59
31.13
28.97
26.84
24.46
22.01
19.99
18.92
18.94
19.64
20.28
20.16
18.95
16.93
14.77
13.26
12.96
13.88
15.60
17.43
18.75
19.21
18.81
17.91
16.92
16.20
15.88
15.91
16.03
16.01
15.74
15.00
13.75
12.01
9.78
7.06
3.88
0.30
-3.57
-7.56
-11.43
-14.89
-17.68
-19.54
-20.35
-20.14
-19.10
-17.62
-16.00
-14.56
-13.33
-12.26
-11.26
-10.28
-9.36
-8.60
-8.12
-7.94
-8.06
-8.36
-8.75
-9.11
-9.42
-9.67
-9.95
-10.40
-11.13
-12.21
-13.44
-14.45
-14.67
-13.56
-10.83
-6.65
-1.61
3.32
7.20
9.37
9.67
8.38
6.08
3.40
0.81
-1.48
-3.42
-5.10
-6.49
-7.54
-8.12
-8.13
-7.55
-6.45
-4.96
-3.22
-1.60
-0.32
0.55
1.03
1.14
0.89
0.21
-0.93
-2.50
-4.42
-6.51
-8.65
-10.78
-12.92
-15.06
-17.19
-19.21
-21.05
-22.74
-24.42
-26.36
-28.89
-32.18
-36.08
-40.06
-43.21
-44.48
-43.04
-38.54
-31.33
-22.40
-13.09
-4.68
1.99
6.65
9.49
10.94
11.43
11.25
10.60
9.74
9.05
8.98
9.92
11.99
15.02
18.55
22.12
25.37
28.19
30.62
32.73
34.43
35.42
35.34
33.90
31.05
27.03
22.32
17.46
12.86
8.71
4.91
1.17
-2.87
-7.50
-12.81
-18.60
-24.30
-29.04
-31.81
-31.82
-28.75
-22.90
-15.15
-6.61
1.71
9.06
15.11
19.71
22.82
24.44
24.64
23.61
21.76
19.61
17.70
16.41
15.94
16.26
17.16
18.36
19.57
20.55
21.23
21.65
21.90
22.00
21.80
21.01
19.28
16.47
12.74
8.55
4.51
1.09
-1.57
-3.70
-5.80
-8.40
-11.82
-16.14
-21.11
-26.25
-30.89
-34.26
-35.54
-34.11
-29.70
-22.67
-13.95
-4.82
3.43
9.93
14.39
17.04
18.36
18.74
18.41
17.44
15.88
13.97
12.10
10.68
10.00
10.04
10.60
11.33
12.00
12.53
12.96
13.35
13.66
13.72
13.28
12.15
10.26
7.73
4.86
2.01
-0.54
-2.67
-4.46
-6.19
-8.20
-10.81
-14.13
-18.00
-21.91
-25.03
-26.45
-25.40
-21.52
-15.05
-6.73
2.36
11.17
18.92
25.25
30.11
33.63
35.96
37.25
37.77
37.99
38.52
40.01
42.94
47.39
53.10
59.57
66.28
72.83
79.00
84.56
89.27
92.76
94.64
94.61
92.58
88.67
83.21
76.55
69.02
60.85
52.20
43.17
33.83
24.22
14.41
4.55
-5.02
-13.71
-20.72
-25.25
-26.67
-24.89
-20.40
-14.27
-7.86
-2.48
0.89
1.77
0.19
-3.44
-8.58
-14.54
-20.64
-26.12
-30.16
-31.97
-30.93
-26.84
-19.97
-11.07
-1.19
8.59
17.39
24.71
30.33
34.32
36.72
37.61
36.97
34.83
31.35
26.88
21.89
16.83
12.01
7.51
3.22
-1.02
-5.28
-9.36
-12.91
-15.53
-17.00
-17.45
-17.29
-17.08
-17.31
-18.20
-19.74
-21.76
-24.02
-26.40
-28.85
-31.37
-33.90
-36.30
-38.39
-39.99
-41.08
-41.80
-42.32
-42.81
-43.26
-43.51
-43.29
-42.33
-40.48
-37.77
-34.42
-30.69
-26.85
-23.15
-19.75
-16.78
-14.35
-12.52
-11.26
-10.44
-9.87
-9.39
-8.90
-8.46
-8.20
-8.33
-9.02
-10.36
-12.33
-14.76
-17.41
-20.01
-22.38
-24.39
-26.05
-27.41
-28.57
-29.64
-30.68
-31.78
-33.00
-34.38
-35.91
-37.54
-39.19
-40.80
-42.37
-43.96
-45.64
-47.46
-49.36
-51.27
-53.09
-54.85
-56.73
-59.05
-62.13
-66.10
-70.71
-75.36
-79.16
-81.28
-81.28
-79.19
-75.47
-70.70
-65.35
-59.66
-53.78
-48.04
-43.04
-39.64
-38.61
-40.40
-44.83
-51.19
-58.35
-65.07
-70.22
-72.92
-72.74
-69.69
-64.31
-57.42
-49.98
-42.73
-36.11
-30.26
-25.18
-20.81
-17.08
-13.81
-10.65
-7.11
-2.71
2.87
9.62
17.34
25.72
34.40
43.15
51.73
60.00
67.86
75.37
82.61
89.65
96.22
101.69
105.19
106.00
103.96
99.59
93.97
88.20
82.94
78.23
73.61
68.56
62.89
56.84
50.89
45.42
40.54
36.05
31.69
27.32
22.99
18.81
14.82
10.85
6.63
1.94
-3.16
-8.32
-13.05
-16.82
-19.34
-20.50
-20.41
-19.23
-17.13
-14.34
-11.13
-7.85
-4.85
-2.34
-0.34
1.41
3.22
5.33
7.73
10.17
12.26
13.59
13.93
13.21
11.51
9.00
5.96
2.75
-0.17
-2.33
-3.33
-3.00
-1.47
0.91
3.66
6.36
8.75
10.76
12.44
13.88
15.11
16.13
16.92
17.50
17.96
18.41
18.91
19.40
19.70
19.61
18.98
17.79
16.18
14.27
12.13
9.68
6.69
2.88
-1.92
-7.72
-14.33
-21.42
-28.66
-35.82
-42.82
-49.66
-56.35
-62.83
-68.98
-74.57
-79.36
-83.05
-85.38
-86.09
-85.04
-82.25
-77.96
-72.58
-66.61
-60.47
-54.45
-48.68
-43.17
-37.90
-32.92
-28.33
-24.19
-20.43
-16.84
-13.13
-8.98
-4.17
1.43
7.87
15.09
22.95
31.18
39.47
47.48
54.96
61.76
67.83
73.12
77.52
80.83
82.97
83.95
83.96
83.33
82.38
81.29
80.09
78.74
77.14
75.31
73.36
71.56
70.23
69.66
70.02
71.29
73.25
75.58
77.94
80.13
81.96
83.32
84.04
83.88
82.68
80.39
77.19
73.38
69.21
64.87
60.39
55.74
50.93
46.02
41.14
36.40
31.88
27.59
23.55
19.80
16.37
13.25
10.38
7.60
4.77
1.76
-1.52
-4.98
-8.48
-11.78
-14.61
-16.71
-17.86
-17.90
-16.75
-14.40
-10.95
-6.59
-1.65
3.51
8.56
13.23
17.31
20.52
22.47
22.60
20.41
15.62
8.40
-0.64
-10.58
-20.42
-29.41
-37.12
-43.53
-48.88
-53.55
-57.87
-61.94
-65.61
-68.58
-70.52
-71.24
-70.76
-69.27
-67.04
-64.28
-61.13
-57.61
-53.75
-49.62
-45.32
-41.02
-36.93
-33.24
-30.07
-27.41
-25.09
-22.87
-20.52
-17.87
-14.91
-11.67
-8.19
-4.47
-0.56
3.36
6.97
9.82
11.56
12.00
11.27
9.63
7.41
4.88
2.18
-0.57
-3.25
-5.69
-7.79
-9.53
-11.06
-12.63
-14.53
-16.99
-20.11
-23.88
-28.11
-32.54
-36.80
-40.48
-43.16
-44.58
-44.75
-43.97
-42.83
-41.91
-41.64
-42.06
-42.81
-43.24
-42.68
-40.68
-37.10
-32.17
-26.40
-20.40
-14.72
-9.85
-6.06
-3.47
-2.00
-1.39
-1.30
-1.34
-1.24
-0.81
-0.06
0.91
1.91
2.69
3.13
3.14
2.83
2.40
2.08
2.07
2.42
3.05
3.77
4.45
4.97
5.30
5.46
5.47
5.41
5.36
5.45
5.76
6.25
6.70
6.76
6.08
4.52
2.22
-0.43
-2.94
-4.87
-6.02
-6.47
-6.52
-6.57
-7.05
-8.23
-10.24
-12.95
-15.99
-18.80
-20.82
-21.62
-21.10
-19.44
-17.06
-14.35
-11.59
-8.85
-6.14
-3.50
-1.09
0.89
2.29
3.15
3.67
4.13
4.71
5.43
6.17
6.76
7.07
7.03
6.60
5.79
4.60
3.10
1.41
-0.29
-1.88
-3.32
-4.67
-6.09
-7.68
-9.41
-11.09
-12.41
-13.05
-12.86
-11.92
-10.53
-9.10
-8.04
-7.58
-7.79
-8.56
-9.69
-10.93
-12.07
-12.95
-13.52
-13.74
-13.52
-12.69
-11.02
-8.39
-4.88
-0.86
3.14
6.66
9.50
11.80
13.85
15.79
17.42
18.26
17.76
15.64
12.12
7.84
3.55
-0.23
-3.37
-6.16
-9.08
-12.52
-16.58
-21.02
-25.35
-28.99
-31.50
-32.65
-32.52
-31.40
-29.74
-27.93
-26.25
-24.71
-23.05
-20.85
-17.70
-13.36
-7.90
-1.67
4.88
11.25
17.08
22.15
26.34
29.53
31.65
32.62
32.50
31.47
29.77
27.69
25.41
23.01
20.43
17.66
14.71
11.71
8.78
6.03
3.49
1.09
-1.17
-3.22
-4.82
-5.63
-5.31
-3.71
-0.93
2.72
6.74
10.63
13.98
16.55
18.23
19.03
19.02
18.31
17.06
15.45
13.70
12.03
10.62
9.57
8.91
8.56
8.41
8.31
8.10
7.70
7.06
6.21
5.23
4.18
3.07
1.91
0.65
-0.74
-2.31
-4.08
-6.10
-8.38
-10.82
-13.16
-14.97
-15.76
-15.10
-12.87
-9.27
-4.78
-0.04
4.38
8.10
11.00
13.09
14.44
15.13
15.20
14.73
13.85
12.73
11.57
10.50
9.58
8.80
8.17
7.71
7.48
7.53
7.81
8.19
8.43
8.31
7.69
6.57
5.11
3.51
1.90
0.31
-1.40
-3.46
-6.02
-9.10
-12.48
-15.71
-18.23
-19.52
-19.22
-17.25
-13.83
-9.37
-4.41
0.55
5.10
8.97
12.00
14.13
15.37
15.78
15.50
14.69
13.57
12.35
11.22
10.34
9.82
9.70
9.89
10.27
10.63
10.83
10.80
10.55
10.13
9.57
8.86
7.94
6.74
5.25
3.48
1.51
-0.55
-2.61
-4.64
-6.68
-8.85
-11.29
-13.99
-16.81
-19.36
-21.09
-21.45
-20.11
-17.09
-12.73
-7.63
-2.40
2.49
6.74
10.23
12.96
14.92
16.13
16.59
16.37
15.62
14.58
13.53
12.70
12.22
12.06
12.12
12.30
12.56
12.93
13.40
13.90
14.24
14.19
13.59
12.44
10.91
9.25
7.68
6.26
4.89
3.43
1.77
-0.08
-2.07
-4.06
-5.97
-7.74
-9.43
-11.16
-13.05
-15.22
-17.66
-20.19
-22.44
-23.94
-24.19
-22.85
-19.87
-15.52
-10.30
-4.84
0.33
4.92
8.75
11.81
14.04
15.32
15.55
14.78
13.29
11.53
9.97
8.91
8.39
8.29
8.43
8.75
9.28
10.08
11.06
11.98
12.55
12.55
12.00
11.08
10.09
9.20
8.38
7.46
6.21
4.49
2.35
0.02
-2.23
-4.20
-5.85
-7.29
-8.68
-10.13
-11.68
-13.30
-14.97
-16.65
-18.29
-19.72
-20.60
-20.50
-19.03
-16.08
-11.87
-6.89
-1.80
2.87
6.77
9.76
11.82
12.95
13.13
12.43
10.99
9.09
7.07
5.30
4.08
3.51
3.59
4.12
4.85
5.54
6.02
6.26
6.31
6.27
6.18
5.98
5.58
4.84
3.69
2.17
0.39
-1.52
-3.43
-5.31
-7.17
-9.08
-11.09
-13.24
-15.47
-17.65
-19.49
-20.64
-20.68
-19.30
-16.42
-12.23
-7.25
-2.12
2.53
6.24
8.84
10.37
11.00
10.95
10.41
9.52
8.41
7.19
5.97
4.87
4.01
3.50
3.41
3.71
4.27
4.89
5.36
5.57
5.47
5.09
4.44
3.51
2.28
0.73
-1.06
-2.95
-4.82
-6.62
-8.46
-10.57
-13.12
-16.09
-19.21
-21.92
-23.59
-23.73
-22.16
-19.07
-14.84
-9.98
-4.89
0.11
4.72
8.63
11.49
13.02
13.16
12.14
10.48
8.75
7.40
6.60
6.26
6.12
5.95
5.70
5.44
5.32
5.42
5.65
5.79
5.59
4.87
3.63
2.03
0.30
-1.36
-2.87
-4.27
-5.74
-7.44
-9.53
-12.09
-15.06
-18.29
-21.42
-24.01
-25.55
-25.55
-23.75
-20.18
-15.25
-9.58
-3.89
1.22
5.39
8.48
10.54
11.67
11.95
11.53
10.55
9.29
8.08
7.21
6.85
6.98
7.40
7.90
8.30
8.55
8.71
8.86
8.95
8.86
8.36
7.31
5.71
3.70
1.51
-0.68
-2.79
-4.84
-6.88
-8.96
-11.12
-13.40
-15.85
-18.54
-21.40
-24.19
-26.46
-27.67
-27.33
-25.22
-21.42
-16.33
-10.50
-4.53
1.04
5.83
9.59
12.22
13.75
14.27
14.03
13.27
12.28
11.29
10.48
9.96
9.78
9.99
10.51
11.21
11.90
12.38
12.50
12.27
11.73
10.94
9.84
8.31
6.20
3.53
0.50
-2.54
-5.25
-7.47
-9.26
-10.94
-12.86
-15.29
-18.29
-21.67
-25.03
-27.83
-29.48
-29.42
-27.33
-23.20
-17.43
-10.72
-3.87
2.36
7.50
11.33
13.81
15.04
15.16
14.41
13.10
11.68
10.58
10.10
10.33
11.09
12.11
13.07
13.80
14.25
14.48
14.61
14.68
14.72
14.61
14.17
13.19
11.47
8.98
5.89
2.52
-0.72
-3.58
-5.94
-7.97
-10.00
-12.37
-15.31
-18.85
-22.77
-26.61
-29.75
-31.51
-31.29
-28.72
-23.83
-17.14
-9.50
-1.96
4.61
9.73
13.35
15.74
17.21
17.94
17.92
17.09
15.51
13.54
11.70
10.53
10.31
11.00
12.26
13.64
14.81
15.59
16.00
16.11
15.97
15.56
14.76
13.43
11.53
9.13
6.40
3.58
0.85
-1.70
-4.12
-6.46
-8.82
-11.25
-13.82
-16.61
-19.73
-23.13
-26.54
-29.42
-31.01
-30.63
-27.90
-22.93
-16.27
-8.79
-1.41
5.11
10.27
13.86
15.90
16.63
16.33
15.30
13.85
12.23
10.73
9.62
9.15
9.45
10.45
11.89
13.41
14.66
15.45
15.74
15.60
15.11
14.20
12.81
10.86
8.42
5.69
2.94
0.40
-1.92
-4.15
-6.53
-9.24
-12.37
-15.88
-19.53
-22.98
-25.72
-27.18
-26.81
-24.28
-19.60
-13.20
-5.82
1.67
8.51
14.15
18.31
20.89
21.92
21.58
20.14
18.02
15.66
13.48
11.79
10.74
10.37
10.60
11.28
12.27
13.36
14.35
15.00
15.08
14.43
12.99
10.83
8.16
5.25
2.38
-0.27
-2.70
-5.06
-7.59
-10.59
-14.21
-18.36
-22.61
-26.24
-28.37
-28.25
-25.48
-20.19
-13.04
-5.03
2.80
9.65
14.99
18.67
20.73
21.33
20.72
19.19
17.16
15.05
13.27
12.15
11.80
12.17
13.02
14.01
14.89
15.49
15.84
16.06
16.26
16.48
16.59
16.32
15.40
13.64
11.03
7.77
4.17
0.59
-2.68
-5.47
-7.77
-9.69
-11.53
-13.64
-16.38
-19.93
-24.12
-28.39
-31.82
-33.43
-32.49
-28.74
-22.56
-14.76
-6.39
1.63
8.63
14.21
18.23
20.67
21.69
21.53
20.59
19.28
18.01
17.07
16.66
16.86
17.67
18.98
20.59
22.16
23.38
23.98
23.90
23.23
22.20
21.01
19.78
18.49
17.03
15.30
13.27
10.99
8.61
6.34
4.34
2.67
1.28
-0.02
-1.47
-3.25
-5.40
-7.76
-10.08
-12.13
-13.81
-15.22
-16.56
-18.11
-20.13
-22.76
-25.97
-29.55
-33.00
-35.65
-36.73
-35.58
-31.95
-26.04
-18.54
-10.42
-2.66
4.00
9.15
12.72
14.88
15.90
16.07
15.67
14.97
14.15
13.40
12.81
12.46
12.42
12.73
13.43
14.45
15.63
16.75
17.57
17.94
17.82
17.30
16.46
15.38
14.05
12.42
10.48
8.31
6.06
3.89
1.87
-0.03
-1.87
-3.73
-5.61
-7.50
-9.45
-11.57
-14.08
-17.11
-20.60
-24.17
-27.19
-28.99
-29.08
-27.39
-24.26
-20.32
-16.28
-12.70
-9.89
-7.93
-6.79
-6.40
-6.76
-7.88
-9.73
-12.10
-14.62
-16.79
-18.18
-18.50
-17.71
-15.97
-13.56
-10.76
-7.75
-4.59
-1.26
2.27
5.96
9.65
13.03
15.76
17.54
18.23
17.93
16.88
15.38
13.63
11.70
9.52
7.02
4.17
1.06
-2.18
-5.30
-8.00
-9.84
-10.41
-9.39
-6.78
-2.91
1.61
6.12
10.07
13.16
15.28
16.46
16.73
16.16
14.89
13.16
11.28
9.61
8.41
7.81
7.83
8.34
9.18
10.15
11.03
11.62
11.76
11.43
10.63
9.44
7.90
6.08
4.01
1.78
-0.47
-2.56
-4.36
-5.84
-7.12
-8.47
-10.16
-12.38
-15.04
-17.77
-19.95
-20.91
-20.14
-17.45
-13.01
-7.35
-1.21
4.63
9.52
13.07
15.17
15.98
15.78
14.84
13.33
11.29
8.72
5.73
2.53
-0.56
-3.25
-5.45
-7.28
-9.04
-11.03
-13.41
-16.13
-19.03
-21.93
-24.78
-27.69
-30.87
-34.53
-38.70
-43.21
-47.78
-52.15
-56.23
-60.12
-64.00
-68.02
-72.17
-76.24
-79.88
-82.57
-83.72
-82.70
-78.91
-71.94
-61.73
-48.57
-33.10
-16.06
1.83
19.94
37.76
54.85
70.76
85.12
97.70
108.51
117.65
125.31
131.54
136.25
139.20
140.09
138.71
134.99
129.09
121.47
112.81
103.90
95.42
87.66
80.54
73.57
66.23
58.17
49.46
40.53
31.90
23.90
16.54
9.52
2.40
-5.11
-13.05
-21.18
-29.11
-36.40
-42.63
-47.39
-50.32
-51.22
-50.10
-47.33
-43.58
-39.65
-36.26
-33.83
-32.47
-32.07
-32.52
-33.77
-35.78
-38.41
-41.33
-44.04
-46.03
-47.00
-46.89
-45.86
-44.14
-41.86
-38.98
-35.34
-30.81
-25.35
-19.09
-12.31
-5.36
1.34
7.33
12.17
15.41
16.69
15.80
12.75
7.82
1.58
-5.19
-11.62
-16.99
-20.86
-23.15
-24.06
-23.92
-23.01
-21.49
-19.38
-16.72
-13.67
-10.56
-7.80
-5.70
-4.41
-3.83
-3.75
-3.95
-4.31
-4.80
-5.39
-6.01
-6.44
-6.41
-5.66
-4.17
-2.11
0.08
1.91
2.99
3.15
2.48
1.20
-0.44
-2.30
-4.34
-6.56
-8.87
-11.09
-13.05
-14.63
-15.89
-17.06
-18.39
-19.98
-21.67
-22.97
-23.23
-21.86
-18.54
-13.44
-7.11
-0.37
6.02
11.56
16.05
19.50
21.99
23.53
24.10
23.74
22.71
21.41
20.27
19.62
19.53
19.84
20.20
20.34
20.09
19.46
18.57
17.56
16.50
15.36
13.98
12.14
9.70
6.70
3.34
-0.04
-3.16
-5.86
-8.16
-10.22
-12.22
-14.29
-16.49
-18.89
-21.49
-24.14
-26.51
-28.05
-28.12
-26.26
-22.41
-16.94
-10.56
-4.05
1.94
7.05
11.15
14.27
16.46
17.79
18.31
18.18
17.60
16.84
16.11
15.59
15.35
15.43
15.77
16.28
16.78
17.11
17.09
16.61
15.68
14.40
12.92
11.37
9.79
8.16
6.41
4.55
2.60
0.63
-1.38
-3.46
-5.67
-7.98
-10.27
-12.36
-14.13
-15.64
-17.13
-18.95
-21.32
-24.20
-27.15
-29.42
-30.25
-29.08
-25.81
-20.81
-14.80
-8.61
-2.93
1.80
5.45
8.08
9.82
10.82
11.20
11.10
10.72
10.29
10.03
10.02
10.24
10.54
10.75
10.80
10.74
10.65
10.65
10.77
10.95
11.04
10.85
10.28
9.31
8.02
6.54
4.94
3.22
1.32
-0.79
-3.06
-5.33
-7.34
-8.90
-9.96
-10.71
-11.47
-12.62
-14.41
-16.82
-19.58
-22.17
-23.94
-24.29
-22.81
-19.48
-14.66
-9.03
-3.36
1.66
5.62
8.36
9.97
10.60
10.50
9.91
9.07
8.24
7.63
7.32
7.31
7.47
7.63
7.66
7.47
7.14
6.80
6.58
6.57
6.66
6.64
6.26
5.37
3.98
2.26
0.45
-1.24
-2.74
-4.07
-5.30
-6.51
-7.71
-9.00
-10.45
-12.15
-14.05
-15.92
-17.34
-17.82
-16.98
-14.75
-11.37
-7.30
-3.08
0.88
4.33
7.18
9.44
11.03
11.89
12.00
11.44
10.49
9.48
8.73
8.40
8.46
8.76
9.08
9.29
9.36
9.31
9.12
8.79
8.26
7.52
6.61
5.61
4.56
3.44
2.18
0.72
-0.93
-2.67
-4.37
-5.88
-7.18
-8.38
-9.64
-11.19
-13.15
-15.48
-17.96
-20.19
-21.70
-22.01
-20.88
-18.25
-14.42
-9.86
-5.19
-0.89
2.68
5.39
7.29
8.48
9.12
9.31
9.08
8.49
7.63
6.66
5.77
5.16
4.92
5.03
5.38
5.86
6.33
6.76
7.08
7.25
7.20
6.88
6.30
5.55
4.72
3.91
3.15
2.43
1.66
0.74
-0.35
-1.58
-2.84
-4.00
-4.96
-5.74
-6.46
-7.31
-8.50
-10.14
-12.18
-14.33
-16.14
-17.04
-16.57
-14.49
-10.92
-6.30
-1.25
3.57
7.69
10.93
13.33
15.08
16.38
17.41
18.31
19.17
20.06
20.97
21.82
22.48
22.86
22.92
22.70
22.31
21.88
21.50
21.24
21.06
20.87
20.47
19.62
18.14
15.98
13.34
10.55
7.90
5.51
3.29
1.00
-1.51
-4.21
-6.85
-9.09
-10.63
-11.44
-11.71
-11.82
-12.15
-12.96
-14.24
-15.74
-17.01
-17.50
-16.89
-14.99
-11.81
-7.59
-2.72
2.29
6.94
10.82
13.67
15.36
15.96
15.72
14.93
13.81
12.52
11.09
9.57
8.00
6.20
4.12
1.84
-0.41
-2.47
-4.36
-6.26
-8.41
-10.97
-14.43
-18.88
-23.95
-29.04
-33.75
-38.05
-42.06
-45.80
-49.16
-53.13
-58.38
-64.93
-72.23
-79.78
-87.40
-95.02
-102.52
-109.70
-118.11
-128.61
-140.62
-152.45
-162.49
-169.85
-174.26
-175.77
-174.49
-172.95
-172.78
-173.77
-174.16
-172.25
-167.13
-158.57
-146.69
-117.51
-66.42
-0.20
66.96
123.50
165.28
193.43
210.59
218.97
220.14
213.39
199.54
182.02
165.69
154.14
148.31
146.57
146.15
144.72
139.66
130.62
119.41
109.10
100.57
93.50
86.80
79.52
71.28
60.93
47.78
31.93
14.86
-1.76
-16.14
-26.83
-32.94
-34.43
-32.62
-29.76
-26.27
-22.35
-18.21
-14.03
-10.10
-6.69
-3.90
-1.85
-0.45
0.71
1.99
3.57
5.55
7.82
10.11
12.11
13.54
14.32
14.62
14.54
14.00
13.08
11.61
9.44
6.54
3.18
-0.23
-3.16
-5.37
-6.95
-8.18
-9.47
-11.10
-13.17
-15.52
-17.85
-19.68
-20.54
-20.01
-17.76
-13.81
-8.47
-2.36
3.78
9.35
13.98
17.62
20.39
22.45
23.87
24.64
24.75
24.30
23.56
22.92
22.70
23.06
23.93
25.07
26.22
27.21
27.96
28.46
28.68
28.52
27.81
26.42
24.28
21.45
18.16
14.68
11.35
8.48
6.15
4.31
2.67
0.86
-1.42
-4.31
-7.67
-11.09
-14.00
-15.78
-15.83
-13.87
-9.93
-4.45
1.87
8.23
14.02
18.83
22.51
25.00
26.25
26.20
24.91
22.65
19.91
17.33
15.41
14.41
14.26
14.70
15.38
16.14
16.87
17.50
17.91
17.90
17.26
15.90
13.85
11.22
8.16
4.72
0.94
-3.19
-7.57
-12.07
-16.51
-20.71
-24.55
-27.95
-30.83
-33.13
-34.86
-36.07
-36.90
-37.40
-37.54
-37.11
-35.82
-33.44
-29.98
-25.73
-21.17
-16.82
-13.06
-10.03
-7.69
-5.87
-4.47
-3.44
-2.79
-2.49
-2.47
-2.58
-2.63
-2.53
-2.24
-1.87
-1.57
-1.50
-1.74
-2.29
-3.13
-4.16
-5.34
-6.64
-8.04
-9.50
-10.95
-12.29
-13.43
-14.37
-15.20
-16.12
-17.33
-19.03
-21.28
-23.98
-26.86
-29.51
-31.48
-32.38
-32.01
-30.32
-27.47
-23.79
-19.70
-15.68
-12.10
-9.18
-6.91
-5.14
-3.63
-2.29
-1.18
-0.51
-0.47
-1.06
-1.99
-2.78
-3.02
-2.51
-1.40
-0.07
1.09
1.89
2.35
2.68
3.11
3.75
4.65
5.73
6.94
8.19
9.34
10.16
10.39
9.80
8.29
5.91
2.84
-0.75
-4.73
-8.99
-13.37
-17.62
-21.42
-24.51
-26.81
-28.46
-29.66
-30.55
-31.06
-30.86
-29.58
-27.01
-23.28
-18.82
-14.23
-9.99
-6.38
-3.42
-1.01
0.87
2.14
2.59
2.09
0.67
-1.41
-3.82
-6.17
-8.24
-9.89
-11.07
-11.72
-11.84
-11.49
-10.92
-10.52
-10.69
-11.70
-13.60
-16.12
-18.86
-21.47
-23.76
-25.71
-27.47
-29.21
-31.12
-33.37
-36.14
-39.58
-43.59
-47.75
-51.24
-52.98
-52.02
-47.92
-40.94
-31.98
-22.27
-12.93
-4.75
1.91
6.98
10.48
12.44
12.96
12.25
10.73
9.02
7.75
7.46
8.36
10.35
13.04
15.90
18.44
20.37
21.67
22.50
23.07
23.41
23.35
22.59
20.82
17.90
13.93
9.21
4.18
-0.80
-5.47
-9.82
-14.03
-18.49
-23.65
-29.83
-37.00
-44.63
-51.63
-56.60
-58.20
-55.60
-48.74
-38.43
-26.04
-13.16
-1.12
9.17
17.32
23.27
27.14
29.07
29.23
27.95
25.69
23.12
21.01
19.96
20.28
21.83
24.14
26.55
28.50
29.61
29.81
29.19
27.99
26.37
24.45
22.17
19.47
16.25
12.54
8.47
4.28
0.19
-3.67
-7.39
-11.29
-15.84
-21.45
-28.30
-36.16
-44.31
-51.64
-56.76
-58.39
-55.68
-48.50
-37.58
-24.33
-10.46
2.50
13.51
22.10
28.26
32.19
34.09
34.17
32.69
30.14
27.24
24.78
23.39
23.34
24.44
26.20
28.09
29.75
31.09
32.22
33.17
33.80
33.74
32.56
29.92
25.80
20.56
14.75
9.00
3.75
-0.89
-5.13
-9.43
-14.29
-20.11
-26.98
-34.54
-41.90
-47.76
-50.64
-49.32
-43.27
-32.91
-19.55
-5.04
8.73
20.40
29.33
35.55
39.43
41.38
41.64
40.41
37.97
34.87
31.81
29.50
28.34
28.33
29.05
29.90
30.46
30.55
30.37
30.23
30.34
30.59
30.47
29.31
26.53
21.94
15.87
9.04
2.33
-3.62
-8.58
-12.78
-16.79
-21.24
-26.66
-33.22
-40.73
-48.51
-55.41
-60.01
-60.87
-57.06
-48.48
-36.03
-21.38
-6.42
7.19
18.46
27.04
33.08
36.95
39.06
39.73
39.29
38.08
36.51
35.00
33.99
33.78
34.49
36.04
38.08
40.16
41.80
42.62
42.51
41.51
39.82
37.60
34.87
31.55
27.49
22.65
17.17
11.44
5.97
1.18
-2.78
-6.09
-9.24
-12.84
-17.39
-23.15
-30.03
-37.51
-44.66
-50.22
-52.84
-51.40
-45.43
-35.28
-22.12
-7.59
6.67
19.38
29.79
37.61
42.88
45.81
46.73
46.11
44.55
42.70
41.08
40.06
39.72
40.01
40.73
41.72
42.81
43.87
44.77
45.35
45.44
44.86
43.48
41.25
38.25
34.61
30.56
26.30
21.97
17.63
13.24
8.71
3.96
-1.03
-6.14
-11.08
-15.52
-19.25
-22.33
-25.20
-28.53
-33.04
-39.05
-46.25
-53.55
-59.36
-61.95
-60.07
-53.37
-42.51
-29.05
-14.94
-1.93
8.78
16.79
22.30
25.88
28.06
29.22
29.56
29.21
28.37
27.27
26.24
25.61
25.59
26.25
27.43
28.83
30.06
30.76
30.75
30.04
28.80
27.20
25.29
22.96
20.06
16.50
12.38
7.97
3.60
-0.46
-4.13
-7.49
-10.71
-14.00
-17.55
-21.49
-25.92
-30.91
-36.27
-41.55
-45.89
-48.23
-47.52
-43.16
-35.20
-24.53
-12.64
-1.14
8.59
15.85
20.63
23.40
24.79
25.29
25.10
24.25
22.79
20.92
19.09
17.80
17.44
18.05
19.30
20.69
21.73
22.19
22.10
21.63
20.96
20.10
18.98
17.43
15.35
12.76
9.75
6.50
3.17
-0.11
-3.23
-6.15
-8.85
-11.36
-13.77
-16.26
-19.08
-22.43
-26.27
-30.20
-33.35
-34.63
-33.03
-28.03
-19.87
-9.52
1.63
12.28
21.52
28.98
34.69
38.89
41.76
43.40
43.83
43.12
41.39
38.83
35.67
32.11
28.32
24.41
20.49
16.68
13.13
10.04
7.62
6.05
5.39
5.56
6.40
7.71
9.34
11.20
13.25
15.43
17.56
19.48
21.05
22.27
23.23
23.92
24.30
24.25
23.64
22.40
20.60
18.31
15.59
12.46
8.86
4.95
1.06
-2.39
-5.15
-7.21
-8.85
-10.43
-12.20
-14.34
-16.73
-19.16
-21.57
-24.21
-27.49
-31.72
-36.98
-43.11
-50.26
-58.29
-66.83
-75.31
-83.15
-89.78
-94.75
-97.92
-99.65
-101.17
-103.38
-106.37
-109.71
-112.88
-115.46
-117.15
-117.82
-117.36
-116.26
-114.27
-110.38
-103.53
-93.27
-79.95
-64.34
-47.48
-25.91
-0.35
25.49
47.85
65.33
78.01
85.76
88.14
84.68
76.06
63.63
50.29
39.54
34.00
34.50
40.01
48.91
59.10
68.66
75.35
77.63
74.81
66.98
54.91
38.71
21.39
5.45
-7.64
-17.69
-24.91
-29.35
-31.79
-31.90
-29.79
-25.82
-20.86
-15.76
-11.10
-7.11
-3.65
-0.53
2.38
4.85
6.81
8.02
8.39
8.52
8.72
9.20
9.96
10.92
11.78
12.43
12.76
12.82
12.73
12.54
12.31
12.12
12.14
12.46
13.12
13.95
14.67
15.03
14.87
14.20
13.25
12.24
11.31
10.47
9.60
8.64
7.56
6.41
5.23
4.00
2.65
1.09
-0.71
-2.74
-4.89
-7.05
-9.19
-11.32
-13.49
-15.68
-17.77
-19.52
-20.67
-20.94
-20.23
-18.60
-16.30
-13.61
-10.87
-8.36
-6.22
-4.56
-3.37
-2.61
-2.22
-2.12
-2.28
-2.65
-3.21
-3.87
-4.44
-4.74
-4.58
-3.94
-2.96
-1.95
-1.23
-1.04
-1.36
-2.04
-2.84
-3.61
-4.33
-5.14
-6.20
-7.56
-9.16
-10.85
-12.46
-13.95
-15.43
-17.11
-19.15
-21.54
-24.08
-26.41
-28.20
-29.22
-29.44
-28.93
-27.77
-26.03
-23.74
-21.01
-18.02
-15.01
-12.26
-9.89
-7.91
-6.26
-4.85
-3.63
-2.58
-1.66
-0.74
0.35
1.76
3.54
5.61
7.80
9.89
11.69
13.07
14.01
14.49
14.57
14.31
13.77
12.98
12.00
10.86
9.56
8.13
6.58
4.92
3.18
1.40
-0.37
-2.11
-3.90
-5.87
-8.25
-11.20
-14.72
-18.54
-22.21
-25.10
-26.69
-26.63
-24.89
-21.75
-17.66
-13.21
-8.88
-5.11
-2.10
0.07
1.51
2.37
2.83
2.99
2.93
2.68
2.28
1.84
1.49
1.31
1.34
1.55
1.88
2.25
2.64
3.00
3.23
3.14
2.47
1.02
-1.21
-4.05
-7.14
-10.11
-12.73
-15.03
-17.26
-19.79
-22.88
-26.63
-30.88
-35.32
-39.58
-43.27
-45.99
-47.34
-46.88
-44.29
-39.49
-32.80
-24.91
-16.84
-9.57
-3.81
0.19
2.52
3.52
3.49
2.66
1.20
-0.64
-2.50
-3.95
-4.65
-4.53
-3.73
-2.50
-0.98
0.83
3.03
5.57
8.11
10.07
10.89
10.28
8.39
5.76
2.94
0.25
-2.44
-5.60
-9.82
-15.50
-22.72
-31.18
-40.37
-49.53
-57.74
-64.01
-67.39
-67.23
-63.39
-56.35
-47.14
-37.02
-27.13
-18.20
-10.59
-4.37
0.45
3.83
5.82
6.70
7.12
7.89
9.72
12.87
17.03
21.52
25.61
28.92
31.50
33.70
35.83
37.93
39.72
40.72
40.52
38.95
36.11
32.27
27.80
23.03
18.20
13.46
8.83
4.21
-0.65
-6.03
-12.21
-19.19
-26.51
-33.21
-37.94
-39.33
-36.42
-29.09
-18.14
-5.08
8.34
20.60
30.78
38.59
44.18
47.92
50.12
51.08
51.03
50.28
49.15
47.99
47.11
46.75
47.04
48.00
49.55
51.46
53.37
54.86
55.56
55.23
53.86
51.60
48.66
45.16
41.14
36.55
31.43
25.92
20.32
14.92
9.87
5.17
0.66
-3.89
-8.68
-13.88
-19.61
-25.93
-32.65
-39.18
-44.50
-47.25
-46.20
-40.74
-31.19
-18.79
-5.36
7.37
18.18
26.54
32.54
36.51
38.77
39.54
38.99
37.38
35.12
32.80
30.99
30.12
30.34
31.46
33.04
34.58
35.66
36.05
35.73
34.83
33.50
31.84
29.79
27.21
23.92
19.85
15.07
9.78
4.32
-0.98
-5.88
-10.27
-14.22
-17.95
-21.69
-25.72
-30.23
-35.28
-40.64
-45.74
-49.60
-51.07
-49.19
-43.59
-34.68
-23.58
-11.77
-0.61
8.95
16.47
21.89
25.34
26.97
26.94
25.52
23.11
20.31
17.77
16.05
15.47
16.03
17.42
19.16
20.82
22.09
22.94
23.48
23.79
23.76
23.11
21.49
18.65
14.67
9.92
4.98
0.39
-3.53
-6.83
-9.84
-13.06
-16.95
-21.70
-27.22
-33.01
-38.28
-42.07
-43.39
-41.58
-36.45
-28.44
-18.56
-8.11
1.64
9.80
15.97
20.24
22.90
24.30
24.62
23.98
22.53
20.55
18.55
17.03
16.36
16.62
17.58
18.87
20.11
21.06
21.62
21.80
21.60
20.94
19.71
17.78
15.08
11.66
7.66
3.31
-1.10
-5.27
-9.01
-12.22
-15.06
-17.83
-20.94
-24.78
-29.55
-35.09
-40.79
-45.62
-48.36
-47.91
-43.73
-36.05
-25.87
-14.68
-4.00
5.08
12.04
16.98
20.30
22.40
23.55
23.79
23.16
21.82
20.13
18.55
17.53
17.27
17.69
18.53
19.43
20.17
20.63
20.83
20.73
20.30
19.45
18.12
16.29
14.02
11.32
8.21
4.71
0.84
-3.23
-7.30
-11.11
-14.50
-17.51
-20.39
-23.55
-27.37
-32.01
-37.27
-42.52
-46.81
-49.10
-48.56
-44.78
-37.92
-28.68
-18.11
-7.42
2.26
10.11
15.71
19.10
20.66
20.96
20.51
19.71
18.76
17.76
16.81
16.10
15.85
16.23
17.22
18.63
20.14
21.40
22.14
22.23
21.71
20.64
19.11
17.19
14.87
12.13
9.00
5.54
1.94
-1.63
-5.01
-8.17
-11.14
-14.01
-16.81
-19.54
-22.23
-25.03
-28.19
-32.04
-36.65
-41.69
-46.32
-49.36
-49.65
-46.50
-39.93
-30.70
-20.09
-9.51
-0.14
7.28
12.51
15.68
17.11
17.24
16.44
15.11
13.57
12.16
11.15
10.70
10.85
11.51
12.43
13.38
14.12
14.53
14.59
14.36
13.90
13.20
12.20
10.74
8.67
5.89
2.50
-1.26
-5.05
-8.56
-11.61
-14.25
-16.69
-19.25
-22.24
-25.89
-30.20
-34.92
-39.49
-43.07
-44.68
-43.53
-39.23
-32.03
-22.81
-12.82
-3.33
4.75
11.01
15.46
18.32
19.81
20.04
19.10
17.17
14.63
12.01
9.85
8.52
8.10
8.47
9.35
10.46
11.64
12.76
13.71
14.36
14.46
13.80
12.18
9.58
6.13
2.15
-1.95
-5.75
-9.03
-11.79
-14.29
-16.96
-20.23
-24.40
-29.41
-34.84
-39.87
-43.37
-44.26
-41.79
-35.89
-27.23
-17.07
-6.85
2.24
9.50
14.79
18.33
20.44
21.40
21.37
20.52
19.06
17.34
15.70
14.46
13.79
13.76
14.32
15.33
16.65
18.06
19.36
20.28
20.56
20.00
18.53
16.29
13.52
10.48
7.33
4.04
0.52
-3.30
-7.33
-11.32
-14.98
-18.12
-20.77
-23.14
-25.56
-28.35
-31.76
-35.85
-40.37
-44.75
-48.04
-49.13
-47.12
-41.62
-33.09
-22.62
-11.68
-1.59
6.79
13.13
17.51
20.17
21.36
21.32
20.31
18.71
16.96
15.50
14.67
14.61
15.34
16.68
18.38
20.14
21.64
22.66
23.05
22.80
21.97
20.68
18.99
16.95
14.56
11.82
8.75
5.41
1.93
-1.60
-5.08
-8.47
-11.78
-14.99
-18.08
-20.97
-23.65
-26.24
-29.05
-32.43
-36.56
-41.14
-45.33
-47.87
-47.49
-43.46
-35.84
-25.63
-14.32
-3.50
5.69
12.73
17.70
21.00
23.06
24.20
24.56
24.26
23.47
22.48
21.63
21.21
21.33
21.92
22.80
23.74
24.53
25.09
25.35
25.31
24.94
24.19
23.02
21.36
19.15
16.37
13.06
9.32
5.31
1.21
-2.78
-6.54
-9.99
-13.10
-15.92
-18.55
-21.18
-24.04
-27.38
-31.26
-35.47
-39.40
-42.12
-42.62
-40.17
-34.58
-26.38
-16.64
-6.63
2.53
10.16
16.02
20.17
22.79
24.02
24.05
23.12
21.66
20.15
19.04
18.59
18.83
19.61
20.72
21.98
23.25
24.41
25.33
25.80
25.66
24.81
23.29
21.25
18.93
16.49
14.01
11.47
8.77
5.83
2.62
-0.82
-4.36
-7.90
-11.26
-14.34
-17.05
-19.40
-21.53
-23.72
-26.34
-29.65
-33.66
-37.94
-41.62
-43.59
-42.86
-38.92
-31.95
-22.87
-12.99
-3.62
4.31
10.44
14.83
17.75
19.38
19.81
19.09
17.42
15.30
13.33
12.10
11.88
12.58
13.81
15.09
16.07
16.66
16.92
16.97
16.85
16.49
15.72
14.39
12.43
9.83
6.66
3.08
-0.69
-4.37
-7.67
-10.41
-12.60
-14.51
-16.54
-19.14
-22.54
-26.60
-30.78
-34.21
-35.92
-35.15
-31.58
-25.53
-17.79
-9.43
-1.52
5.21
10.39
14.04
16.33
17.51
17.74
17.15
15.93
14.37
12.80
11.54
10.77
10.52
10.68
11.08
11.56
12.05
12.54
12.98
13.26
13.16
12.42
10.84
8.35
5.10
1.38
-2.42
-5.96
-9.05
-11.73
-14.16
-16.68
-19.60
-23.10
-27.06
-30.95
-33.93
-35.02
-33.47
-29.04
-22.13
-13.74
-5.10
2.66
8.85
13.25
16.08
17.69
18.45
18.61
18.22
17.33
16.05
14.61
13.38
12.69
12.74
13.43
14.40
15.25
15.65
15.53
15.05
14.46
13.90
13.28
12.31
10.62
8.01
4.52
0.45
-3.72
-7.59
-10.86
-13.55
-15.82
-18.01
-20.46
-23.46
-27.10
-31.21
-35.21
-38.22
-39.24
-37.51
-32.77
-25.46
-16.59
-7.45
0.78
7.36
12.12
15.28
17.23
18.33
18.76
18.57
17.80
16.62
15.31
14.28
13.85
14.19
15.19
16.52
17.75
18.55
18.76
18.42
17.68
16.64
15.35
13.72
11.65
9.14
6.24
3.13
-0.01
-3.07
-5.97
-8.67
-11.18
-13.52
-15.80
-18.18
-20.90
-24.10
-27.73
-31.43
-34.55
-36.31
-36.03
-33.32
-28.33
-21.60
-13.98
-6.32
0.68
6.59
11.30
14.77
17.10
18.32
18.52
17.86
16.67
15.41
14.57
14.53
15.38
16.87
18.50
19.73
20.23
19.93
19.12
18.19
17.43
16.90
16.40
15.55
14.04
11.71
8.65
5.15
1.58
-1.73
-4.60
-6.98
-8.97
-10.77
-12.59
-14.67
-17.19
-20.23
-23.67
-27.11
-29.89
-31.22
-30.48
-27.37
-22.16
-15.49
-8.27
-1.34
4.72
9.63
13.36
15.97
17.52
18.03
17.56
16.26
14.50
12.81
11.69
11.45
12.03
13.12
14.25
15.06
15.41
15.37
15.11
14.77
14.30
13.51
12.20
10.24
7.66
4.69
1.63
-1.20
-3.57
-5.46
-7.09
-8.81
-10.99
-13.84
-17.24
-20.77
-23.76
-25.51
-25.42
-23.27
-19.20
-13.74
-7.64
-1.65
3.59
7.79
10.91
13.10
14.57
15.43
15.78
15.61
14.96
13.91
12.65
11.45
10.59
10.31
10.69
11.64
12.86
14.03
14.81
15.04
14.70
13.92
12.84
11.58
10.20
8.65
6.91
4.99
2.95
0.86
-1.22
-3.27
-5.30
-7.38
-9.51
-11.64
-13.64
-15.45
-17.10
-18.83
-20.91
-23.54
-26.55
-29.38
-31.22
-31.29
-29.17
-24.96
-19.27
-12.97
-6.90
-1.65
2.54
5.71
7.99
9.51
10.37
10.63
10.42
9.92
9.39
9.07
9.12
9.56
10.28
11.09
11.86
12.49
12.97
13.30
13.43
13.25
12.66
11.54
9.91
7.90
5.75
3.68
1.86
0.32
-1.01
-2.27
-3.59
-5.00
-6.49
-7.96
-9.36
-10.67
-12.00
-13.50
-15.38
-17.79
-20.71
-23.84
-26.69
-28.57
-28.88
-27.22
-23.64
-18.57
-12.77
-7.06
-2.08
1.84
4.67
6.59
7.76
8.28
8.16
7.48
6.42
5.31
4.51
4.27
4.64
5.47
6.49
7.45
8.14
8.51
8.55
8.35
7.99
7.53
6.94
6.10
4.86
3.13
0.94
-1.46
-3.74
-5.60
-6.89
-7.72
-8.35
-9.06
-10.07
-11.50
-13.40
-15.78
-18.59
-21.60
-24.36
-26.23
-26.54
-24.87
-21.23
-16.12
-10.33
-4.74
-0.02
3.47
5.69
6.83
7.14
6.93
6.44
5.87
5.38
5.02
4.81
4.73
4.76
4.90
5.20
5.71
6.43
7.26
8.01
8.45
8.39
7.78
6.67
5.23
3.60
1.86
0.04
-1.86
-3.78
-5.60
-7.20
-8.53
-9.68
-10.85
-12.30
-14.21
-16.58
-19.19
-21.66
-23.48
-24.17
-23.37
-20.96
-17.09
-12.24
-7.04
-2.15
1.94
5.01
7.09
8.37
9.05
9.23
8.93
8.19
7.14
6.02
5.16
4.79
4.96
5.56
6.37
7.20
7.91
8.46
8.81
8.91
8.67
8.00
6.87
5.28
3.30
1.01
-1.49
-4.06
-6.52
-8.68
-10.41
-11.68
-12.63
-13.49
-14.53
-15.95
-17.87
-20.26
-22.93
-25.47
-27.33
-27.90
-26.71
-23.60
-18.88
-13.19
-7.38
-2.15
2.11
5.32
7.65
9.28
10.31
10.70
10.40
9.47
8.18
6.91
6.10
5.98
6.54
7.51
8.49
9.12
9.25
8.93
8.37
7.81
7.35
6.94
6.40
5.54
4.22
2.44
0.26
-2.16
-4.65
-7.03
-9.13
-10.90
-12.38
-13.78
-15.38
-17.49
-20.27
-23.65
-27.25
-30.45
-32.52
-32.82
-30.95
-26.92
-21.18
-14.45
-7.63
-1.51
3.37
6.81
8.89
9.89
10.08
9.70
8.92
7.89
6.81
5.93
5.48
5.58
6.18
7.12
8.15
9.07
9.77
10.28
10.61
10.75
10.51
9.66
8.00
5.51
2.42
-0.90
-4.01
-6.64
-8.75
-10.50
-12.15
-13.99
-16.20
-18.90
-22.06
-25.48
-28.71
-31.07
-31.75
-30.17
-26.16
-20.14
-13.02
-5.84
0.54
5.68
9.58
12.49
14.65
16.14
16.90
16.84
16.03
14.74
13.42
12.52
12.33
12.86
13.88
15.04
16.00
16.61
16.86
16.89
16.81
16.61
16.13
15.12
13.40
10.93
7.92
4.69
1.61
-1.08
-3.32
-5.28
-7.20
-9.35
-11.97
-15.15
-18.92
-23.14
-27.47
-31.33
-33.95
-34.54
-32.57
-27.99
-21.29
-13.42
-5.47
1.60
7.24
11.39
14.29
16.34
17.80
18.76
19.19
19.07
18.52
17.81
17.27
17.16
17.58
18.45
19.62
20.92
22.25
23.51
24.54
25.10
24.89
23.73
21.66
18.99
16.15
13.55
11.42
9.64
7.91
5.83
3.17
-0.07
-3.60
-7.04
-10.05
-12.47
-14.41
-16.16
-18.13
-20.69
-24.02
-28.03
-32.23
-35.84
-37.91
-37.63
-34.56
-28.85
-21.17
-12.60
-4.22
3.10
8.89
13.10
15.93
17.66
18.52
18.69
18.36
17.72
17.07
16.68
16.71
17.19
17.99
18.89
19.70
20.34
20.79
21.02
21.00
20.67
19.96
18.87
17.44
15.69
13.60
11.14
8.28
5.11
1.82
-1.36
-4.27
-6.88
-9.31
-11.75
-14.33
-17.18
-20.32
-23.71
-27.17
-30.29
-32.47
-33.01
-31.38
-27.46
-21.61
-14.61
-7.38
-0.67
5.08
9.69
13.15
15.43
16.54
16.53
15.64
14.23
12.74
11.59
11.02
11.10
11.73
12.69
13.75
14.71
15.47
15.97
16.23
16.20
15.81
14.89
13.35
11.15
8.42
5.37
2.29
-0.60
-3.17
-5.42
-7.43
-9.40
-11.56
-14.16
-17.41
-21.32
-25.59
-29.59
-32.46
-33.29
-31.53
-27.16
-20.74
-13.27
-5.83
0.73
6.01
9.97
12.82
14.77
15.92
16.27
15.89
14.97
13.87
12.97
12.58
12.79
13.46
14.34
15.17
15.79
16.22
16.56
16.86
17.04
16.86
16.01
14.26
11.54
8.08
4.25
0.54
-2.65
-5.13
-6.99
-8.53
-10.19
-12.37
-15.36
-19.18
-23.57
-27.99
-31.67
-33.77
-33.63
-30.90
-25.73
-18.75
-10.92
-3.27
3.42
8.72
12.57
15.20
16.86
17.74
17.94
17.47
16.46
15.16
13.93
13.16
13.09
13.76
14.97
16.38
17.56
18.24
18.30
17.83
17.01
15.99
14.82
13.37
11.46
8.93
5.78
2.22
-1.43
-4.81
-7.67
-10.03
-12.12
-14.28
-16.84
-19.97
-23.66
-27.60
-31.27
-33.95
-34.91
-33.54
-29.65
-23.48
-15.79
-7.60
0.10
6.60
11.62
15.19
17.56
18.98
19.64
19.68
19.22
18.48
17.71
17.18
17.11
17.58
18.48
19.59
20.57
21.18
21.30
21.00
20.47
19.86
19.19
18.30
17.01
15.19
12.90
10.36
7.77
5.25
2.76
0.17
-2.60
-5.58
-8.62
-11.52
-14.10
-16.26
-18.01
-19.48
-20.99
-22.88
-25.49
-28.93
-32.89
-36.63
-39.13
-39.41
-36.89
-31.61
-24.25
-15.87
-7.51
-0.01
6.20
10.98
14.35
16.40
17.24
17.08
16.22
15.08
14.02
13.33
13.14
13.44
14.12
15.03
16.01
16.88
17.45
17.57
17.20
16.39
15.22
13.77
11.98
9.76
7.02
3.85
0.49
-2.68
-5.31
-7.30
-8.77
-10.07
-11.62
-13.73
-16.58
-20.07
-23.85
-27.29
-29.57
-29.90
-27.78
-23.24
-16.86
-9.68
-2.76
3.08
7.53
10.68
12.84
14.29
15.13
15.37
14.98
14.08
12.93
11.88
11.25
11.26
11.91
13.03
14.34
15.49
16.21
16.36
15.97
15.21
14.27
13.27
12.12
10.60
8.45
5.61
2.29
-1.14
-4.24
-6.79
-8.84
-10.65
-12.56
-14.77
-17.31
-20.14
-23.20
-26.38
-29.42
-31.79
-32.76
-31.59
-27.88
-21.81
-14.14
-6.03
1.42
7.48
11.89
14.81
16.54
17.36
17.45
16.94
16.00
14.89
13.93
13.35
13.29
13.69
14.41
15.29
16.21
17.12
18.01
18.77
19.22
19.12
18.32
16.77
14.65
12.28
9.96
7.90
6.07
4.30
2.35
0.07
-2.56
-5.44
-8.36
-11.15
-13.65
-15.82
-17.68
-19.41
-21.31
-23.70
-26.84
-30.73
-34.93
-38.66
-40.87
-40.60
-37.34
-31.25
-23.13
-14.21
-5.74
1.40
6.89
10.84
13.58
15.38
16.38
16.61
16.19
15.37
14.48
13.85
13.67
13.97
14.70
15.80
17.15
18.61
19.90
20.75
20.90
20.31
19.13
17.61
16.00
14.38
12.68
10.76
8.56
6.09
3.49
0.88
-1.66
-4.10
-6.47
-8.72
-10.83
-12.78
-14.63
-16.62
-19.03
-22.15
-26.05
-30.42
-34.59
-37.60
-38.54
-36.79
-32.29
-25.53
-17.47
-9.23
-1.73
4.44
9.11
12.37
14.45
15.56
15.85
15.48
14.65
13.57
12.51
11.69
11.25
11.27
11.73
12.56
13.58
14.59
15.37
15.77
15.74
15.32
14.60
13.61
12.29
10.53
8.21
5.37
2.16
-1.10
-4.10
-6.63
-8.67
-10.41
-12.15
-14.20
-16.77
-19.90
-23.43
-27.05
-30.28
-32.52
-33.18
-31.78
-28.13
-22.43
-15.29
-7.57
-0.21
6.03
10.65
13.53
14.84
14.98
14.35
13.34
12.21
11.15
10.32
9.88
9.94
10.52
11.51
12.68
13.78
14.62
15.10
15.23
15.01
14.48
13.65
12.52
11.06
9.26
7.10
4.56
1.72
-1.30
-4.30
-7.04
-9.40
-11.39
-13.16
-14.97
-17.10
-19.75
-22.97
-26.63
-30.30
-33.36
-35.05
-34.72
-32.01
-27.00
-20.25
-12.60
-5.04
1.67
7.01
10.89
13.43
14.92
15.59
15.61
15.11
14.23
13.13
12.07
11.32
11.07
11.37
12.12
13.13
14.16
15.01
15.59
15.84
15.77
15.34
14.53
13.25
11.41
8.98
5.98
2.58
-0.96
-4.36
-7.39
-9.98
-12.21
-14.29
-16.44
-18.86
-21.67
-24.89
-28.46
-32.10
-35.32
-37.41
-37.60
-35.35
-30.54
-23.59
-15.38
-6.95
0.77
7.16
11.99
15.33
17.39
18.40
18.56
18.12
17.34
16.52
15.92
15.69
15.82
16.19
16.66
17.11
17.50
17.81
18.07
18.21
18.12
17.66
16.75
15.38
13.62
11.60
9.45
7.25
4.98
2.58
-0.04
-2.92
-5.99
-9.11
-12.10
-14.80
-17.18
-19.33
-21.49
-23.96
-27.03
-30.77
-34.91
-38.77
-41.37
-41.72
-39.10
-33.41
-25.20
-15.59
-5.86
2.84
9.79
14.79
18.07
20.02
21.02
21.27
20.86
19.88
18.52
17.13
16.08
15.68
15.98
16.81
17.85
18.79
19.41
19.64
19.49
19.01
18.21
17.07
15.53
13.52
11.01
8.01
4.65
1.13
-2.27
-5.31
-7.86
-9.96
-11.83
-13.79
-16.18
-19.23
-22.90
-26.88
-30.57
-33.19
-33.96
-32.27
-27.99
-21.50
-13.66
-5.60
1.66
7.43
11.52
14.12
15.63
16.38
16.53
16.13
15.23
14.03
12.82
11.99
11.83
12.40
13.52
14.88
16.12
16.98
17.38
17.33
16.95
16.33
15.46
14.28
12.68
10.61
8.09
5.26
2.32
-0.55
-3.21
-5.67
-7.97
-10.16
-12.31
-14.48
-16.77
-19.32
-22.26
-25.60
-29.10
-32.16
-34.02
-33.88
-31.31
-26.36
-19.65
-12.12
-4.74
1.76
7.02
11.03
13.93
15.88
16.94
17.10
16.44
15.19
13.75
12.58
12.07
12.38
13.37
14.69
15.89
16.64
16.79
16.50
15.99
15.49
15.03
14.44
13.40
11.66
9.14
6.03
2.70
-0.43
-3.09
-5.22
-7.04
-8.90
-11.13
-13.95
-17.39
-21.29
-25.34
-29.11
-32.08
-33.66
-33.31
-30.66
-25.68
-18.78
-10.82
-2.88
4.03
9.30
12.82
14.94
16.22
17.08
17.67
17.88
17.55
16.62
15.32
14.06
13.28
13.30
14.16
15.64
17.36
18.93
20.01
20.43
20.10
19.07
17.42
15.33
12.98
10.57
8.27
6.12
4.07
1.96
-0.41
-3.08
-5.97
-8.84
-11.39
-13.44
-15.02
-16.41
-18.05
-20.31
-23.38
-27.07
-30.85
-33.93
-35.50
-34.89
-31.83
-26.52
-19.58
-11.89
-4.36
2.27
7.57
11.44
13.96
15.35
15.81
15.53
14.75
13.70
12.68
11.94
11.65
11.84
12.42
13.19
13.98
14.59
14.94
15.00
14.85
14.54
14.06
13.29
12.06
10.19
7.65
4.58
1.28
-1.89
-4.66
-6.96
-8.96
-10.95
-13.21
-15.95
-19.18
-22.71
-26.17
-29.04
-30.69
-30.54
-28.28
-23.92
-17.93
-11.09
-4.26
1.76
6.51
9.84
11.89
12.98
13.41
13.41
13.09
12.51
11.69
10.74
9.88
9.34
9.30
9.79
10.60
11.44
12.03
12.26
12.15
11.86
11.47
10.94
10.13
8.84
6.96
4.53
1.71
-1.22
-3.99
-6.42
-8.44
-10.15
-11.77
-13.59
-15.81
-18.54
-21.67
-24.95
-27.91
-29.95
-30.47
-29.01
-25.42
-20.00
-13.42
-6.55
-0.20
5.14
9.30
12.38
14.52
15.77
16.08
15.43
13.98
12.09
10.31
9.15
8.86
9.35
10.30
11.27
11.97
12.29
12.36
12.33
12.29
12.12
11.58
10.39
8.41
5.71
2.57
-0.63
-3.54
-5.98
-7.96
-9.65
-11.33
-13.21
-15.47
-18.19
-21.35
-24.78
-28.11
-30.74
-31.94
-31.03
-27.70
-22.14
-15.03
-7.41
-0.26
5.67
10.10
13.08
14.85
15.70
15.81
15.32
14.39
13.19
12.01
11.12
10.73
10.91
11.59
12.53
13.45
14.09
14.30
14.06
13.49
12.67
11.72
10.66
9.46
8.08
6.46
4.58
2.44
0.10
-2.36
-4.81
-7.11
-9.21
-11.11
-12.94
-14.90
-17.21
-20.05
-23.46
-27.25
-30.95
-33.84
-35.08
-33.98
-30.30
-24.40
-17.12
-9.55
-2.62
3.14
7.60
10.95
13.36
14.91
15.57
15.35
14.41
13.11
11.85
10.98
10.65
10.81
11.25
11.75
12.16
12.41
12.48
12.43
12.27
12.04
11.65
11.00
9.88
8.15
5.74
2.79
-0.40
-3.43
-5.97
-7.98
-9.67
-11.45
-13.73
-16.72
-20.29
-24.10
-27.60
-30.27
-31.62
-31.29
-29.08
-24.99
-19.33
-12.66
-5.75
0.66
5.99
9.97
12.62
14.08
14.56
14.19
13.12
11.57
9.87
8.43
7.59
7.49
8.02
8.86
9.66
10.16
10.34
10.32
10.24
10.12
9.77
8.83
7.04
4.36
1.08
-2.33
-5.38
-7.81
-9.68
-11.27
-12.98
-15.16
-17.96
-21.35
-25.04
-28.57
-31.27
-32.45
-31.53
-28.26
-22.87
-16.06
-8.77
-1.91
3.83
8.18
11.17
13.01
13.93
14.13
13.70
12.79
11.63
10.53
9.80
9.64
10.04
10.83
11.77
12.63
13.32
13.76
13.91
13.69
12.97
11.66
9.77
7.38
4.67
1.83
-1.05
-3.90
-6.71
-9.47
-12.24
-15.07
-18.07
-21.28
-24.55
-27.44
-29.26
-29.29
-27.05
-22.51
-16.20
-9.05
-2.01
4.16
9.15
12.96
15.75
17.65
18.67
18.79
18.09
16.82
15.37
14.14
13.48
13.50
14.15
15.21
16.38
17.39
18.03
18.22
17.96
17.33
16.40
15.22
13.84
12.26
10.50
8.55
6.39
3.98
1.32
-1.54
-4.43
-7.20
-9.70
-11.90
-13.92
-15.97
-18.34
-21.24
-24.71
-28.53
-32.17
-34.85
-35.73
-34.23
-30.16
-23.93
-16.38
-8.54
-1.33
4.65
9.15
12.26
14.18
15.17
15.44
15.19
14.59
13.83
13.16
12.78
12.86
13.41
14.36
15.52
16.65
17.58
18.17
18.40
18.26
17.77
16.92
15.69
14.10
12.17
9.97
7.55
4.97
2.29
-0.37
-2.92
-5.25
-7.31
-9.17
-10.98
-12.95
-15.32
-18.26
-21.78
-25.62
-29.28
-31.99
-32.96
-31.62
-27.83
-22.01
-14.99
-7.77
-1.22
4.15
8.19
11.03
12.83
13.80
14.05
13.77
13.15
12.46
11.91
11.63
11.67
11.97
12.45
13.01
13.60
14.15
14.63
14.98
15.10
14.89
14.24
13.08
11.39
9.17
6.53
3.62
0.61
-2.35
-5.13
-7.67
-9.97
-12.10
-14.18
-16.37
-18.81
-21.52
-24.40
-27.12
-29.24
-30.22
-29.57
-27.01
-22.56
-16.63
-9.91
-3.21
2.75
7.51
10.96
13.25
14.61
15.25
15.28
14.75
13.81
12.69
11.79
11.43
11.77
12.71
13.93
15.05
15.81
16.17
16.25
16.18
16.03
15.70
14.98
13.71
11.81
9.33
6.48
3.46
0.50
-2.20
-4.49
-6.29
-7.69
-8.92
-10.33
-12.22
-14.80
-18.04
-21.66
-25.15
-27.86
-29.09
-28.29
-25.21
-20.08
-13.57
-6.57
-0.04
5.41
9.52
12.37
14.25
15.39
15.96
16.02
15.64
14.96
14.21
13.66
13.50
13.76
14.35
15.06
15.70
16.20
16.58
16.93
17.30
17.57
17.48
16.75
15.27
13.13
10.67
8.22
6.05
4.16
2.40
0.54
-1.57
-3.95
-6.52
-9.12
-11.62
-13.95
-16.06
-18.02
-19.98
-22.15
-24.74
-27.76
-30.97
-33.74
-35.30
-34.89
-32.08
-26.97
-20.17
-12.63
-5.36
0.87
5.70
9.14
11.43
12.85
13.61
13.83
13.56
12.95
12.21
11.60
11.38
11.71
12.58
13.86
15.32
16.72
17.86
18.61
18.91
18.78
18.26
17.36
16.09
14.45
12.51
10.35
8.15
6.00
3.95
1.93
-0.15
-2.36
-4.68
-6.98
-9.08
-10.91
-12.47
-13.89
-15.40
-17.24
-19.59
-22.53
-25.94
-29.46
-32.43
-34.03
-33.53
-30.52
-25.15
-18.17
-10.64
-3.61
2.19
6.52
9.52
11.52
12.81
13.57
13.91
13.94
13.73
13.37
12.92
12.42
11.96
11.72
11.87
12.51
13.58
14.82
15.86
16.39
16.23
15.39
14.03
12.32
10.45
8.55
6.69
4.90
3.12
1.25
-0.86
-3.25
-5.91
-8.66
-11.23
-13.42
-15.18
-16.69
-18.31
-20.43
-23.29
-26.73
-30.19
-32.79
-33.62
-32.04
-27.98
-21.95
-14.86
-7.72
-1.34
3.86
7.76
10.47
12.13
12.84
12.69
11.81
10.44
8.94
7.67
6.96
6.97
7.68
8.89
10.27
11.48
12.27
12.58
12.46
12.08
11.57
10.96
10.15
8.99
7.37
5.29
2.82
0.12
-2.66
-5.42
-8.07
-10.59
-12.96
-15.26
-17.66
-20.37
-23.50
-26.93
-30.16
-32.47
-33.06
-31.40
-27.39
-21.42
-14.27
-6.82
0.12
5.97
10.46
13.52
15.29
16.00
15.98
15.48
14.73
13.86
12.98
12.20
11.66
11.50
11.82
12.61
13.76
15.06
16.27
17.12
17.37
16.90
15.74
14.08
12.18
10.26
8.40
6.50
4.39
1.93
-0.82
-3.68
-6.38
-8.76
-10.81
-12.74
-14.80
-17.22
-20.18
-23.69
-27.60
-31.56
-34.95
-37.00
-36.95
-34.33
-29.19
-22.11
-14.07
-6.12
0.91
6.58
10.85
13.87
15.87
16.96
17.19
16.63
15.49
14.05
12.67
11.63
11.06
11.05
11.53
12.39
13.51
14.70
15.78
16.51
16.73
16.30
15.26
13.69
11.74
9.52
7.04
4.29
1.27
-1.91
-5.06
-7.96
-10.48
-12.63
-14.60
-16.72
-19.26
-22.39
-26.02
-29.82
-33.25
-35.64
-36.32
-34.83
-31.03
-25.23
-18.15
-10.66
-3.59
2.50
7.36
10.97
13.41
14.76
15.10
14.58
13.51
12.30
11.40
11.09
11.38
12.09
12.92
13.71
14.44
15.21
16.09
16.98
17.64
17.77
17.19
15.95
14.22
12.20
9.96
7.45
4.62
1.50
-1.71
-4.74
-7.38
-9.63
-11.70
-13.93
-16.59
-19.80
-23.47
-27.30
-30.88
-33.68
-35.16
-34.78
-32.26
-27.61
-21.28
-14.06
-6.84
-0.43
4.71
8.42
10.81
12.11
12.52
12.26
11.52
10.57
9.70
9.17
9.15
9.63
10.52
11.60
12.65
13.47
13.96
14.15
14.09
13.83
13.29
12.27
10.56
8.06
4.92
1.53
-1.68
-4.39
-6.62
-8.68
-11.02
-14.04
-17.87
-22.28
-26.69
-30.29
-32.25
-31.90
-29.00
-23.79
-16.95
-9.43
-2.11
4.30
9.48
13.33
15.91
17.33
17.69
17.20
16.11
14.76
13.48
12.54
12.07
12.08
12.48
13.12
13.90
14.71
15.51
16.22
16.67
16.71
16.14
14.86
12.88
10.33
7.40
4.33
1.34
-1.40
-3.82
-5.96
-8.03
-10.34
-13.20
-16.80
-21.04
-25.49
-29.42
-31.99
-32.45
-30.35
-25.69
-18.97
-11.11
-3.18
3.84
9.39
13.37
16.00
17.70
18.72
19.18
19.01
18.24
17.03
15.78
14.91
14.71
15.21
16.15
17.22
18.17
18.89
19.44
19.86
20.11
20.05
19.51
18.38
16.64
14.35
11.64
8.63
5.47
2.27
-0.83
-3.76
-6.52
-9.15
-11.78
-14.47
-17.28
-20.26
-23.47
-26.96
-30.68
-34.34
-37.39
-39.03
-38.51
-35.38
-29.79
-22.44
-14.38
-6.64
0.06
5.45
9.64
12.89
15.39
17.15
18.11
18.22
17.62
16.68
15.85
15.52
15.88
16.85
18.15
19.43
20.40
20.94
21.07
20.87
20.44
19.76
18.72
17.19
15.10
12.50
9.54
6.45
3.43
0.61
-1.97
-4.37
-6.63
-8.83
-11.06
-13.44
-16.14
-19.34
-23.09
-27.18
-31.09
-34.03
-35.15
-33.77
-29.73
-23.41
-15.68
-7.63
-0.23
5.87
10.44
13.59
15.56
16.62
16.94
16.65
15.92
14.98
14.10
13.55
13.49
13.96
14.81
15.79
16.66
17.22
17.44
17.39
17.16
16.75
16.04
14.83
12.92
10.28
7.03
3.46
-0.06
-3.26
-6.01
-8.39
-10.63
-12.98
-15.71
-18.93
-22.60
-26.39
-29.79
-32.17
-32.90
-31.56
-28.07
-22.71
-16.06
-8.94
-2.11
3.81
8.54
12.05
14.53
16.18
17.09
17.26
16.69
15.49
13.98
12.68
12.07
12.44
13.69
15.34
16.80
17.62
17.62
16.99
16.06
15.14
14.33
13.51
12.37
10.63
8.17
5.07
1.65
-1.73
-4.76
-7.30
-9.43
-11.36
-13.42
-15.91
-19.00
-22.66
-26.60
-30.24
-32.84
-33.61
-31.99
-27.84
-21.50
-13.78
-5.72
1.71
7.85
12.41
15.41
17.10
17.75
17.63
17.01
16.14
15.32
14.80
14.77
15.26
16.14
17.20
18.21
19.01
19.56
19.88
19.98
19.84
19.38
18.49
17.09
15.20
12.93
10.50
8.05
5.69
3.38
1.02
-1.50
-4.21
-7.03
-9.81
-12.39
-14.73
-16.90
-19.10
-21.61
-24.70
-28.42
-32.55
-36.44
-39.13
-39.63
-37.21
-31.85
-24.20
-15.47
-6.98
0.27
5.87
9.93
12.84
14.95
16.38
17.06
16.95
16.17
15.11
14.23
13.94
14.34
15.22
16.20
16.90
17.16
17.07
16.90
16.83
16.83
16.65
15.96
14.49
12.20
9.23
5.92
2.57
-0.55
-3.32
-5.69
-7.77
-9.68
-11.69
-14.13
-17.26
-21.16
-25.57
-29.87
-33.21
-34.70
-33.68
-29.99
-24.03
-16.62
-8.88
-1.81
3.91
8.06
10.79
12.44
13.35
13.72
13.61
13.07
12.26
11.42
10.83
10.72
11.17
12.13
13.42
14.85
16.20
17.26
17.83
17.76
16.99
15.60
13.75
11.62
9.31
6.87
4.29
1.59
-1.15
-3.82
-6.34
-8.68
-10.92
-13.19
-15.61
-18.30
-21.35
-24.77
-28.42
-31.96
-34.78
-36.10
-35.21
-31.73
-25.83
-18.28
-10.22
-2.79
3.28
7.74
10.82
12.88
14.19
14.79
14.56
13.50
11.82
10.05
8.80
8.47
9.11
10.37
11.77
12.88
13.55
13.85
13.93
13.91
13.66
12.99
11.66
9.60
6.90
3.82
0.62
-2.51
-5.44
-8.11
-10.47
-12.52
-14.36
-16.23
-18.41
-21.17
-24.53
-28.12
-31.26
-33.01
-32.58
-29.57
-24.15
-17.06
-9.30
-1.89
4.44
9.35
12.85
15.12
16.38
16.77
16.40
15.40
14.02
12.60
11.52
11.06
11.32
12.16
13.30
14.44
15.33
15.87
16.05
15.90
15.45
14.64
13.40
11.73
9.65
7.27
4.65
1.86
-1.09
-4.17
-7.27
-10.19
-12.75
-14.85
-16.55
-18.09
-19.80
-22.04
-24.97
-28.47
-32.07
-34.99
-36.38
-35.55
-32.26
-26.77
-19.84
-12.37
-5.22
1.03
6.10
9.93
12.61
14.23
14.93
14.91
14.40
13.67
12.99
12.54
12.45
12.76
13.41
14.28
15.19
15.94
16.40
16.54
16.33
15.79
14.90
13.60
11.83
9.59
6.94
4.04
1.09
-1.72
-4.32
-6.72
-9.06
-11.51
-14.23
-17.34
-20.80
-24.49
-28.09
-31.12
-33.00
-33.17
-31.29
-27.33
-21.71
-15.07
-8.20
-1.74
3.84
8.33
11.62
13.71
14.67
14.60
13.82
12.67
11.57
10.82
10.59
10.89
11.57
12.45
13.27
13.85
14.08
14.00
13.72
13.37
13.00
12.47
11.52
9.86
7.32
4.03
0.34
-3.22
-6.25
-8.59
-10.42
-12.16
-14.23
-16.96
-20.38
-24.27
-28.14
-31.36
-33.26
-33.25
-31.04
-26.66
-20.58
-13.52
-6.36
0.17
5.57
9.63
12.34
13.82
14.17
13.55
12.20
10.48
8.82
7.67
7.30
7.73
8.69
9.79
10.67
11.14
11.28
11.29
11.32
11.36
11.17
10.42
8.80
6.25
2.96
-0.65
-4.07
-6.92
-9.06
-10.62
-11.98
-13.62
-15.91
-18.98
-22.59
-26.14
-28.82
-29.84
-28.68
-25.25
-19.90
-13.30
-6.24
0.53
6.46
11.21
14.64
16.78
17.78
17.89
17.36
16.41
15.22
13.94
12.78
12.02
11.94
12.62
13.97
15.59
17.00
17.80
17.85
17.27
16.32
15.23
14.02
12.55
10.63
8.16
5.28
2.27
-0.55
-2.97
-4.96
-6.72
-8.54
-10.66
-13.23
-16.28
-19.76
-23.54
-27.45
-31.17
-34.20
-35.91
-35.68
-33.11
-28.23
-21.48
-13.72
-5.90
1.05
6.59
10.53
13.05
14.50
15.26
15.55
15.49
15.10
14.42
13.63
13.00
12.85
13.40
14.65
16.40
18.27
19.88
20.89
21.13
20.55
19.26
17.42
15.29
13.10
11.01
9.06
7.10
4.90
2.29
-0.72
-3.92
-6.95
-9.58
-11.73
-13.60
-15.55
-17.86
-20.73
-24.16
-27.96
-31.81
-35.19
-37.44
-37.85
-35.86
-31.36
-24.78
-16.97
-9.01
-1.80
4.13
8.64
11.88
14.08
15.45
16.10
16.13
15.69
14.97
14.28
13.89
14.02
14.73
15.93
17.39
18.86
20.11
20.95
21.31
21.16
20.49
19.33
17.72
15.73
13.47
11.12
8.80
6.59
4.45
2.22
-0.22
-2.97
-5.96
-8.96
-11.70
-13.99
-15.82
-17.45
-19.32
-21.87
-25.35
-29.58
-33.99
-37.56
-39.24
-38.17
-34.04
-27.28
-18.87
-10.07
-2.00
4.59
9.40
12.54
14.24
14.79
14.45
13.49
12.24
11.09
10.36
10.27
10.86
11.94
13.24
14.50
15.52
16.22
16.58
16.68
16.55
16.20
15.56
14.49
12.82
10.42
7.27
3.59
-0.23
-3.74
-6.58
-8.73
-10.43
-12.18
-14.46
-17.55
-21.42
-25.71
-29.80
-32.97
-34.48
-33.81
-30.71
-25.34
-18.32
-10.57
-3.08
3.37
8.37
11.91
14.20
15.48
15.91
15.57
14.58
13.20
11.80
10.77
10.38
10.67
11.48
12.50
13.47
14.20
14.61
14.70
14.48
13.95
13.05
11.68
9.74
7.25
4.36
1.30
-1.68
-4.45
-7.04
-9.61
-12.38
-15.52
-19.10
-23.06
-27.19
-31.05
-33.98
-35.16
-33.92
-29.98
-23.64
-15.79
-7.56
-0.01
6.19
10.86
14.12
16.25
17.43
17.78
17.33
16.21
14.62
12.91
11.48
10.67
10.67
11.45
12.80
14.37
15.85
17.04
17.85
18.25
18.21
17.63
16.41
14.48
11.87
8.72
5.26
1.73
-1.70
-4.93
-7.94
-10.77
-13.48
-16.09
-18.66
-21.31
-24.23
-27.59
-31.39
-35.29
-38.57
-40.29
-39.60
-36.11
-30.06
-22.24
-13.75
-5.57
1.66
7.64
12.32
15.72
17.84
18.68
18.40
17.28
15.77
14.33
13.32
12.94
13.21
14.04
15.23
16.60
17.91
18.95
19.55
19.61
19.10
18.09
16.63
14.76
12.47
9.77
6.69
3.37
-0.02
-3.33
-6.42
-9.25
-11.86
-14.32
-16.79
-19.46
-22.53
-26.12
-30.10
-34.03
-37.15
-38.60
-37.67
-34.11
-28.22
-20.73
-12.62
-4.74
2.27
8.12
12.70
16.06
18.27
19.44
19.70
19.24
18.33
17.27
16.40
15.96
16.12
16.84
17.96
19.17
20.18
20.80
20.95
20.68
20.06
19.08
17.68
15.68
12.99
9.62
5.77
1.78
-1.97
-5.18
-7.79
-9.98
-12.08
-14.49
-17.50
-21.18
-25.39
-29.73
-33.61
-36.37
-37.37
-36.14
-32.56
-26.86
-19.63
-11.72
-3.97
2.93
8.54
12.69
15.43
16.89
17.24
16.71
15.57
14.15
12.81
11.89
11.59
11.93
12.77
13.82
14.82
15.59
16.06
16.21
16.02
15.39
14.14
12.13
9.35
6.00
2.47
-0.85
-3.69
-6.05
-8.19
-10.54
-13.49
-17.21
-21.59
-26.16
-30.16
-32.75
-33.18
-31.05
-26.42
-19.82
-12.11
-4.26
2.94
8.98
13.68
17.07
19.26
20.33
20.36
19.49
18.00
16.28
14.79
13.95
13.98
14.84
16.28
17.90
19.26
20.06
20.17
19.60
18.57
17.32
16.04
14.79
13.43
11.70
9.34
6.28
2.65
-1.16
-4.73
-7.75
-10.23
-12.38
-14.55
-17.04
-19.97
-23.34
-27.07
-30.97
-34.75
-37.88
-39.58
-39.05
-35.70
-29.50
-21.09
-11.61
-2.39
5.50
11.52
15.64
18.18
19.55
20.08
19.98
19.42
18.60
17.81
17.31
17.32
17.87
18.81
19.92
20.96
21.82
22.46
22.85
22.92
22.54
21.51
19.78
17.41
14.62
11.72
8.93
6.35
3.83
1.17
-1.80
-5.08
-8.46
-11.60
-14.24
-16.34
-18.12
-19.97
-22.33
-25.47
-29.35
-33.58
-37.46
-40.13
-40.80
-38.87
-34.24
-27.27
-18.80
-9.88
-1.57
5.42
10.78
14.61
17.17
18.77
19.61
19.82
19.52
18.94
18.38
18.13
18.40
19.13
20.12
21.11
21.92
22.53
23.03
23.49
23.84
23.89
23.36
22.02
19.85
17.05
13.96
10.95
8.28
6.01
4.03
2.07
-0.11
-2.68
-5.61
-8.72
-11.70
-14.27
-16.31
-17.94
-19.53
-21.54
-24.37
-28.15
-32.62
-37.12
-40.71
-42.39
-41.41
-37.46
-30.85
-22.36
-13.11
-4.26
3.32
9.15
13.20
15.75
17.19
17.87
18.00
17.67
16.98
16.13
15.44
15.25
15.78
17.01
18.66
20.35
21.72
22.60
23.10
23.37
23.55
23.57
23.23
22.25
20.48
17.96
14.99
11.95
9.20
6.93
5.15
3.64
2.10
0.28
-1.96
-4.58
-7.41
-10.21
-12.78
-15.01
-16.92
-18.64
-20.32
-22.19
-24.46
-27.34
-30.87
-34.76
-38.31
-40.54
-40.46
-37.50
-31.77
-24.06
-15.57
-7.44
-0.45
5.10
9.28
12.25
14.17
15.09
15.08
14.29
13.02
11.66
10.60
10.17
10.45
11.36
12.64
13.96
15.08
15.94
16.59
17.12
17.55
17.73
17.45
16.52
14.92
12.80
10.45
8.09
5.86
3.70
1.44
-1.09
-3.92
-6.91
-9.82
-12.35
-14.35
-15.85
-17.13
-18.55
-20.47
-23.08
-26.33
-29.84
-32.95
-34.92
-35.02
-32.80
-28.24
-21.81
-14.31
-6.70
0.20
5.86
10.12
13.05
14.84
15.72
15.88
15.47
14.62
13.54
12.42
11.54
11.11
11.30
12.16
13.56
15.24
16.82
17.97
18.40
18.01
16.86
15.15
13.12
10.98
8.79
6.52
4.10
1.45
-1.40
-4.35
-7.25
-9.93
-12.33
-14.44
-16.33
-18.11
-20.01
-22.30
-25.24
-28.89
-32.97
-36.75
-39.20
-39.33
-36.52
-30.87
-23.16
-14.57
-6.27
0.88
6.54
10.73
13.63
15.49
16.43
16.56
15.98
14.87
13.46
12.07
10.99
10.47
10.68
11.62
13.10
14.80
16.36
17.46
17.93
17.78
17.12
16.10
14.81
13.22
11.24
8.77
5.84
2.58
-0.82
-4.16
-7.31
-10.29
-13.14
-15.93
-18.66
-21.31
-23.91
-26.62
-29.65
-33.09
-36.82
-40.30
-42.64
-42.92
-40.44
-35.12
-27.55
-18.78
-10.00
-2.11
4.43
9.56
13.42
16.12
17.67
18.02
17.28
15.78
14.09
12.81
12.38
12.91
14.18
15.80
17.36
18.68
19.72
20.60
21.40
22.05
22.34
21.98
20.79
18.75
16.09
13.17
10.29
7.60
5.06
2.51
-0.19
-3.08
-6.02
-8.84
-11.35
-13.48
-15.34
-17.19
-19.32
-21.99
-25.34
-29.29
-33.54
-37.50
-40.39
-41.38
-39.81
-35.44
-28.59
-20.06
-10.95
-2.36
4.91
10.47
14.33
16.73
17.97
18.30
17.88
16.91
15.62
14.34
13.46
13.27
13.91
15.25
16.98
18.67
19.96
20.61
20.59
20.05
19.24
18.32
17.35
16.21
14.70
12.63
9.93
6.69
3.15
-0.44
-3.86
-7.01
-9.87
-12.49
-14.96
-17.41
-20.03
-23.03
-26.54
-30.42
-34.19
-37.03
-38.02
-36.43
-32.00
-25.11
-16.71
-7.96
0.06
6.64
11.46
14.61
16.34
17.01
16.91
16.30
15.42
14.45
13.57
12.92
12.60
12.63
12.96
13.45
13.94
14.29
14.45
14.47
14.39
14.19
13.70
12.70
10.95
8.42
5.27
1.89
-1.32
-4.07
-6.36
-8.43
-10.73
-13.67
-17.46
-22.00
-26.83
-31.22
-34.31
-35.35
-33.86
-29.82
-23.65
-16.10
-8.08
-0.42
6.26
11.62
15.55
18.13
19.52
19.91
19.49
18.45
17.03
15.50
14.19
13.41
13.37
14.09
15.35
16.77
17.99
18.74
18.96
18.75
18.26
17.52
16.41
14.72
12.24
9.00
5.18
1.16
-2.67
-6.06
-8.98
-11.61
-14.20
-17.04
-20.33
-24.18
-28.54
-33.11
-37.33
-40.40
-41.44
-39.81
-35.33
-28.41
-19.94
-11.02
-2.66
4.48
10.13
14.35
17.34
19.29
20.33
20.56
20.12
19.22
18.17
17.29
16.83
16.87
17.36
18.15
19.08
20.02
20.86
21.52
21.88
21.78
21.10
19.74
17.72
15.15
12.20
9.08
5.92
2.80
-0.25
-3.25
-6.23
-9.17
-12.03
-14.79
-17.46
-20.13
-22.99
-26.25
-30.02
-34.25
-38.48
-41.91
-43.57
-42.59
-38.53
-31.62
-22.74
-13.09
-3.87
4.08
10.36
14.97
18.10
20.01
20.87
20.84
20.11
18.96
17.74
16.83
16.54
16.97
18.03
19.43
20.86
21.99
22.64
22.75
22.39
21.64
20.60
19.27
17.64
15.62
13.11
10.09
6.61
2.83
-0.97
-4.56
-7.74
-10.47
-12.87
-15.15
-17.60
-20.51
-24.08
-28.28
-32.72
-36.63
-38.95
-38.74
-35.49
-29.39
-21.30
-12.44
-3.99
3.29
9.10
13.50
16.70
18.87
20.06
20.29
19.63
18.30
16.66
15.11
14.05
13.75
14.27
15.43
16.93
18.39
19.47
19.99
19.91
19.31
18.32
17.05
15.47
13.51
11.06
8.07
4.65
1.04
-2.46
-5.62
-8.38
-10.83
-13.19
-15.70
-18.52
-21.75
-25.40
-29.33
-33.27
-36.71
-38.92
-39.17
-36.96
-32.20
-25.36
-17.29
-9.02
-1.42
4.93
9.78
13.15
15.14
15.89
15.58
14.45
12.84
11.17
9.83
9.12
9.12
9.72
10.70
11.76
12.67
13.32
13.69
13.74
13.43
12.61
11.17
9.08
6.43
3.44
0.34
-2.76
-5.85
-9.03
-12.46
-16.26
-20.46
-24.93
-29.35
-33.15
-35.66
-36.18
-34.27
-29.89
-23.45
-15.68
-7.42
0.55
7.61
13.34
17.50
20.09
21.26
21.35
20.72
19.71
18.53
17.33
16.28
15.59
15.50
16.15
17.44
19.08
20.62
21.66
21.98
21.58
20.62
19.25
17.55
15.51
13.04
10.11
6.78
3.14
-0.62
-4.31
-7.77
-10.87
-13.54
-15.86
-18.01
-20.28
-23.03
-26.51
-30.83
-35.73
-40.62
-44.63
-46.77
-46.22
-42.58
-36.06
-27.40
-17.76
-8.33
-0.03
6.67
11.72
15.32
17.77
19.22
19.77
19.51
18.62
17.48
16.55
16.21
16.66
17.77
19.20
20.53
21.45
21.82
21.68
21.13
20.25
19.07
17.50
15.50
13.03
10.12
6.85
3.39
-0.09
-3.39
-6.35
-8.90
-11.09
-13.12
-15.33
-18.09
-21.67
-26.11
-31.04
-35.70
-39.12
-40.28
-38.54
-33.78
-26.57
-17.92
-9.03
-0.93
5.78
10.96
14.81
17.63
19.62
20.82
21.23
20.88
19.99
18.97
18.25
18.13
18.64
19.53
20.43
21.02
21.21
21.06
20.73
20.32
19.78
18.96
17.69
15.84
13.41
10.46
7.15
3.68
0.27
-2.88
-5.64
-8.03
-10.20
-12.42
-14.96
-18.03
-21.69
-25.77
-29.82
-33.17
-34.98
-34.55
-31.48
-25.94
-18.62
-10.53
-2.65
4.25
9.84
14.07
17.09
19.04
20.03
20.18
19.67
18.83
18.03
17.62
17.79
18.49
19.54
20.64
21.55
22.13
22.36
22.23
21.77
20.92
19.68
18.06
16.16
14.09
11.94
9.67
7.18
4.38
1.32
-1.84
-4.84
-7.50
-9.82
-12.04
-14.46
-17.35
-20.80
-24.72
-28.81
-32.63
-35.66
-37.26
-36.85
-34.01
-28.73
-21.47
-13.15
-4.86
2.41
8.06
11.89
14.09
15.01
15.02
14.46
13.60
12.68
11.91
11.44
11.35
11.61
12.11
12.70
13.27
13.74
14.06
14.22
14.17
13.78
12.85
11.17
8.67
5.47
1.91
-1.59
-4.68
-7.20
-9.31
-11.35
-13.75
-16.80
-20.50
-24.55
-28.29
-30.91
-31.65
-30.04
-26.03
-20.08
-12.94
-5.55
1.32
7.17
11.78
15.12
17.27
18.32
18.34
17.54
16.18
14.63
13.26
12.36
12.09
12.38
13.06
13.85
14.49
14.79
14.70
14.24
13.51
12.57
11.46
10.12
8.45
6.38
3.89
1.09
-1.81
-4.60
-7.12
-9.33
-11.34
-13.32
-15.44
-17.87
-20.67
-23.84
-27.23
-30.54
-33.27
-34.75
-34.36
-31.68
-26.76
-20.11
-12.62
-5.26
1.22
6.39
10.20
12.80
14.42
15.19
15.21
14.60
13.57
12.44
11.57
11.21
11.45
12.13
13.01
13.85
14.52
14.98
15.22
15.19
14.75
13.79
12.27
10.33
8.15
5.93
3.72
1.47
-0.90
-3.37
-5.80
-8.02
-9.92
-11.61
-13.29
-15.26
-17.66
-20.56
-23.85
-27.32
-30.68
-33.47
-35.10
-34.93
-32.51
-27.76
-21.16
-13.59
-6.03
0.69
6.10
10.11
12.83
14.46
15.18
15.16
14.60
13.78
12.93
12.26
11.85
11.77
12.00
12.52
13.23
14.01
14.71
15.14
15.22
14.92
14.24
13.19
11.72
9.82
7.50
4.89
2.21
-0.31
-2.50
-4.39
-6.12
-7.86
-9.71
-11.69
-13.72
-15.76
-17.88
-20.29
-23.17
-26.48
-29.87
-32.62
-33.89
-32.97
-29.58
-24.01
-17.02
-9.59
-2.63
3.26
7.79
10.99
13.02
14.12
14.51
14.39
13.97
13.39
12.83
12.39
12.18
12.24
12.56
13.11
13.82
14.58
15.31
15.92
16.32
16.38
15.97
14.97
13.36
11.30
9.00
6.70
4.51
2.36
0.09
-2.47
-5.34
-8.37
-11.29
-13.84
-15.84
-17.32
-18.49
-19.68
-21.23
-23.40
-26.26
-29.53
-32.64
-34.74
-35.04
-32.99
-28.56
-22.24
-14.90
-7.49
-0.83
4.61
8.62
11.22
12.53
12.70
11.91
10.42
8.58
6.77
5.40
4.69
4.68
5.19
5.93
6.65
7.23
7.67
8.04
8.38
8.59
8.42
7.65
6.13
3.91
1.22
-1.61
-4.27
-6.53
-8.39
-9.97
-11.59
-13.59
-16.28
-19.75
-23.78
-27.79
-30.94
-32.36
-31.41
-27.92
-22.30
-15.37
-8.15
-1.54
3.89
8.01
10.96
12.99
14.30
14.92
14.84
14.08
12.78
11.23
9.79
8.80
8.44
8.72
9.53
10.65
11.84
12.89
13.66
14.07
14.03
13.49
12.39
10.71
8.47
5.76
2.75
-0.37
-3.44
-6.32
-8.92
-11.17
-13.09
-14.79
-16.52
-18.60
-21.34
-24.82
-28.76
-32.57
-35.46
-36.62
-35.51
-31.98
-26.32
-19.22
-11.55
-4.16
2.27
7.41
11.23
13.90
15.60
16.45
16.48
15.73
14.40
12.86
11.61
11.05
11.34
12.32
13.59
14.75
15.55
15.96
16.10
16.08
15.92
15.48
14.60
13.18
11.21
8.78
6.02
3.01
-0.21
-3.55
-6.90
-10.05
-12.84
-15.24
-17.44
-19.74
-22.52
-25.95
-29.89
-33.79
-36.82
-38.04
-36.80
-32.90
-26.69
-19.00
-10.83
-3.03
3.78
9.33
13.52
16.37
17.86
18.06
17.17
15.57
13.86
12.57
12.07
12.42
13.39
14.61
15.76
16.63
17.23
17.66
18.03
18.33
18.42
18.05
16.97
15.02
12.21
8.72
4.94
1.22
-2.09
-4.87
-7.14
-9.13
-11.13
-13.48
-16.48
-20.28
-24.77
-29.49
-33.61
-36.12
-36.10
-33.08
-27.30
-19.57
-11.08
-2.97
4.02
9.56
13.67
16.52
18.23
18.87
18.51
17.37
15.78
14.17
12.94
12.32
12.35
12.91
13.78
14.73
15.58
16.27
16.80
17.15
17.27
16.98
16.05
14.28
11.63
8.24
4.44
0.61
-2.97
-6.18
-9.03
-11.69
-14.29
-17.03
-20.06
-23.45
-27.08
-30.50
-32.97
-33.60
-31.69
-27.06
-20.19
-12.08
-3.95
3.22
8.91
13.03
15.78
17.38
17.96
17.54
16.23
14.27
12.13
10.32
9.27
9.16
9.84
11.00
12.26
13.34
14.12
14.60
14.79
14.60
13.88
12.46
10.29
7.51
4.42
1.33
-1.56
-4.29
-7.01
-10.02
-13.51
-17.54
-21.86
-26.00
-29.25
-30.85
-30.22
-27.11
-21.72
-14.72
-7.00
0.51
7.08
12.32
16.10
18.55
19.84
20.17
19.72
18.68
17.29
15.85
14.67
14.06
14.12
14.79
15.80
16.82
17.55
17.85
17.79
17.51
17.11
16.53
15.53
13.82
11.26
7.93
4.14
0.33
-3.09
-5.96
-8.32
-10.44
-12.63
-15.21
-18.34
-22.08
-26.28
-30.55
-34.27
-36.61
-36.79
-34.33
-29.27
-22.19
-14.06
-5.97
1.23
7.09
11.52
14.66
16.71
17.81
18.05
17.53
16.45
15.13
13.98
13.34
13.39
14.07
15.08
16.07
16.75
16.98
16.83
16.46
15.96
15.28
14.24
12.63
10.36
7.52
4.34
1.09
-2.03
-4.95
-7.69
-10.37
-13.13
-16.11
-19.41
-23.02
-26.77
-30.25
-32.83
-33.76
-32.50
-28.78
-22.87
-15.47
-7.51
0.06
6.57
11.69
15.40
17.87
19.26
19.74
19.45
18.57
17.40
16.28
15.53
15.37
15.88
16.97
18.44
19.94
21.12
21.68
21.44
20.42
18.83
16.94
15.00
13.09
11.13
8.99
6.55
3.82
0.94
-1.91
-4.57
-6.99
-9.22
-11.34
-13.52
-15.95
-18.76
-22.08
-25.84
-29.74
-33.16
-35.33
-35.47
-33.08
-28.13
-21.11
-12.95
-4.72
2.61
8.42
12.53
15.08
16.40
16.82
16.59
15.84
14.73
13.49
12.48
12.05
12.38
13.40
14.79
16.09
16.90
17.05
16.65
15.95
15.27
14.71
14.15
13.29
11.77
9.41
6.27
2.63
-1.07
-4.43
-7.26
-9.58
-11.65
-13.85
-16.47
-19.64
-23.26
-27.01
-30.41
-32.90
-33.92
-33.06
-30.09
-25.13
-18.61
-11.23
-3.81
2.88
8.27
12.12
14.41
15.34
15.21
14.36
13.14
11.87
10.86
10.31
10.29
10.71
11.39
12.12
12.76
13.26
13.65
13.94
14.09
13.96
13.34
12.07
10.06
7.37
4.20
0.87
-2.32
-5.15
-7.61
-9.83
-12.09
-14.65
-17.67
-21.09
-24.57
-27.55
-29.28
-29.09
-26.58
-21.83
-15.42
-8.27
-1.34
4.69
9.53
13.23
15.94
17.79
18.79
18.94
18.31
17.13
15.76
14.51
13.62
13.20
13.31
13.92
14.95
16.24
17.53
18.49
18.84
18.42
17.24
15.48
13.39
11.20
9.02
6.79
4.38
1.71
-1.18
-4.10
-6.82
-9.14
-11.06
-12.71
-14.30
-16.02
-18.04
-20.50
-23.52
-27.09
-30.93
-34.44
-36.68
-36.75
-34.06
-28.67
-21.29
-13.06
-5.13
1.67
6.94
10.70
13.14
14.48
14.92
14.65
13.92
13.00
12.21
11.77
11.77
12.22
13.01
14.00
15.01
15.90
16.54
16.81
16.66
16.08
15.09
13.77
12.16
10.31
8.22
5.90
3.37
0.65
-2.19
-5.06
-7.82
-10.34
-12.57
-14.55
-16.50
-18.67
-21.29
-24.39
-27.73
-30.71
-32.52
-32.40
-29.86
-24.94
-18.21
-10.59
-3.07
3.54
8.84
12.73
15.32
16.79
17.27
16.90
15.87
14.50
13.19
12.31
12.09
12.53
13.44
14.55
15.64
16.57
17.29
17.80
18.05
17.98
17.46
16.45
14.97
13.17
11.23
9.28
7.30
5.17
2.75
-0.03
-3.05
-6.07
-8.80
-10.99
-12.61
-13.80
-14.86
-16.12
-17.89
-20.39
-23.65
-27.51
-31.47
-34.77
-36.48
-35.81
-32.40
-26.44
-18.73
-10.39
-2.52
4.08
9.04
12.35
14.21
14.87
14.54
13.48
12.00
10.44
9.16
8.40
8.23
8.56
9.17
9.82
10.37
10.77
11.09
11.42
11.80
12.06
11.95
11.14
9.42
6.85
3.70
0.39
-2.69
-5.34
-7.54
-9.50
-11.47
-13.74
-16.48
-19.71
-23.26
-26.72
-29.49
-30.88
-30.34
-27.60
-22.83
-16.58
-9.63
-2.78
3.39
8.51
12.46
15.17
16.62
16.80
15.77
13.80
11.35
9.02
7.34
6.65
6.95
7.99
9.39
10.75
11.78
12.33
12.38
12.02
11.38
10.59
9.73
8.71
7.37
5.54
3.14
0.28
-2.78
-5.74
-8.37
-10.66
-12.74
-14.83
-17.13
-19.73
-22.62
-25.72
-28.81
-31.52
-33.35
-33.69
-32.06
-28.27
-22.58
-15.65
-8.36
-1.56
4.16
8.54
11.62
13.60
14.67
14.90
14.34
13.07
11.34
9.58
8.24
7.70
8.09
9.25
10.84
12.44
13.73
14.51
14.78
14.60
14.07
13.21
11.96
10.23
7.90
5.01
1.71
-1.74
-5.01
-7.90
-10.32
-12.38
-14.29
-16.30
-18.67
-21.54
-24.95
-28.76
-32.58
-35.83
-37.74
-37.64
-35.03
-29.92
-22.79
-14.57
-6.33
0.95
6.68
10.71
13.23
14.56
14.98
14.64
13.70
12.40
11.06
10.12
9.88
10.41
11.52
12.85
14.02
14.81
15.16
15.21
15.08
14.82
14.36
13.51
12.09
10.04
7.42
4.38
1.15
-2.09
-5.19
-8.09
-10.76
-13.27
-15.76
-18.42
-21.49
-25.11
-29.24
-33.47
-37.09
-39.22
-39.06
-36.19
-30.71
-23.28
-14.86
-6.50
0.95
7.05
11.66
14.91
17.01
18.11
18.28
17.61
16.26
14.59
13.08
12.25
12.40
13.56
15.40
17.41
19.13
20.26
20.73
20.67
20.23
19.51
18.52
17.22
15.58
13.60
11.31
8.72
5.89
2.90
-0.20
-3.33
-6.42
-9.45
-12.43
-15.36
-18.37
-21.61
-25.20
-29.12
-33.08
-36.47
-38.45
-38.25
-35.43
-30.07
-22.77
-14.49
-6.19
1.36
7.65
12.51
15.90
17.92
18.67
18.34
17.22
15.65
14.09
12.95
12.57
13.05
14.23
15.77
17.26
18.36
18.93
19.02
18.80
18.43
17.93
17.15
15.84
13.77
10.88
7.31
3.38
-0.56
-4.21
-7.42
-10.19
-12.64
-15.02
-17.59
-20.63
-24.23
-28.25
-32.15
-35.07
-36.05
-34.39
-29.93
-23.16
-15.06
-6.72
0.90
7.28
12.23
15.81
18.11
19.20
19.13
18.06
16.29
14.23
12.34
11.00
10.41
10.60
11.42
12.62
13.89
14.99
15.74
16.05
15.84
15.04
13.55
11.30
8.36
4.94
1.40
-1.88
-4.67
-6.98
-9.06
-11.36
-14.27
-18.00
-22.40
-26.90
-30.58
-32.39
-31.51
-27.64
-21.20
-13.13
-4.64
3.21
9.77
14.87
18.58
21.08
22.48
22.84
22.31
21.14
19.70
18.41
17.53
17.23
17.47
18.18
19.17
20.28
21.27
21.93
22.11
21.74
20.86
19.54
17.89
15.87
13.37
10.29
6.62
2.53
-1.63
-5.47
-8.71
-11.31
-13.49
-15.57
-17.90
-20.70
-24.13
-28.19
-32.72
-37.29
-41.13
-43.31
-42.90
-39.42
-33.00
-24.42
-14.86
-5.52
2.72
9.40
14.45
18.00
20.22
21.27
21.33
20.67
19.62
18.52
17.68
17.28
17.41
18.01
18.95
20.07
21.17
22.12
22.80
23.10
22.93
22.20
20.86
18.86
16.20
12.93
9.20
5.23
1.30
-2.30
-5.37
-7.86
-9.94
-11.89
-14.06
-16.73
-20.05
-24.04
-28.55
-33.25
-37.55
-40.62
-41.53
-39.54
-34.39
-26.55
-17.07
-7.30
1.49
8.52
13.54
16.80
18.73
19.79
20.24
20.22
19.78
19.00
18.11
17.38
17.12
17.50
18.46
19.80
21.18
22.34
23.12
23.46
23.34
22.74
21.64
20.01
17.94
15.58
13.11
10.65
8.18
5.60
2.77
-0.36
-3.70
-7.02
-10.06
-12.68
-14.90
-16.96
-19.22
-22.04
-25.59
-29.79
-34.18
-38.01
-40.36
-40.36
-37.49
-31.77
-23.82
-14.75
-5.79
2.03
8.08
12.26
14.79
16.01
16.28
15.87
15.03
14.03
13.11
12.53
12.41
12.73
13.31
13.94
14.43
14.69
14.78
14.79
14.79
14.71
14.35
13.36
11.49
8.64
5.06
1.19
-2.42
-5.42
-7.72
-9.58
-11.45
-13.80
-16.95
-20.92
-25.36
-29.60
-32.73
-33.87
-32.39
-28.17
-21.66
-13.72
-5.43
2.24
8.64
13.49
16.80
18.73
19.50
19.31
18.42
17.09
15.59
14.24
13.26
12.84
12.99
13.64
14.56
15.47
16.18
16.58
16.71
16.61
16.31
15.67
14.49
12.59
9.94
6.72
3.27
-0.08
-3.13
-5.85
-8.33
-10.76
-13.31
-16.14
-19.38
-23.11
-27.21
-31.33
-34.79
-36.77
-36.54
-33.75
-28.51
-21.42
-13.35
-5.18
2.37
8.80
13.78
17.15
18.89
19.10
18.13
16.46
14.64
13.16
12.31
12.16
12.59
13.40
14.34
15.23
15.92
16.36
16.53
16.44
16.08
15.39
14.27
12.59
10.22
7.16
3.51
-0.48
-4.45
-8.10
-11.23
-13.84
-16.10
-18.32
-20.87
-24.01
-27.75
-31.77
-35.37
-37.67
-37.78
-35.17
-29.85
-22.41
-13.85
-5.27
2.39
8.60
13.23
16.40
18.36
19.29
19.35
18.65
17.40
15.91
14.60
13.80
13.75
14.44
15.61
16.88
17.83
18.20
17.90
17.07
15.95
14.77
13.67
12.58
11.31
9.59
7.21
4.17
0.69
-2.83
-6.01
-8.67
-10.85
-12.85
-15.05
-17.73
-20.98
-24.73
-28.71
-32.52
-35.59
-37.22
-36.70
-33.53
-27.71
-19.83
-11.02
-2.54
4.60
9.94
13.53
15.79
17.12
17.75
17.75
17.17
16.15
15.05
14.24
14.01
14.42
15.25
16.16
16.81
17.02
16.79
16.27
15.68
15.14
14.64
14.00
12.94
11.20
8.68
5.50
1.94
-1.59
-4.77
-7.43
-9.61
-11.53
-13.53
-15.94
-18.97
-22.58
-26.47
-30.01
-32.40
-32.87
-30.94
-26.59
-20.35
-13.10
-5.77
0.89
6.44
10.76
13.87
15.80
16.58
16.25
14.99
13.21
11.44
10.24
9.97
10.69
12.09
13.68
14.95
15.57
15.50
14.96
14.19
13.42
12.66
11.79
10.56
8.79
6.42
3.56
0.49
-2.46
-5.02
-7.08
-8.79
-10.42
-12.28
-14.57
-17.38
-20.65
-24.17
-27.66
-30.67
-32.62
-32.87
-30.92
-26.61
-20.29
-12.74
-4.99
2.03
7.67
11.64
13.99
14.98
14.96
14.26
13.21
12.07
11.05
10.27
9.78
9.56
9.59
9.83
10.27
10.84
11.44
11.89
12.02
11.66
10.71
9.18
7.17
4.81
2.26
-0.32
-2.81
-5.11
-7.21
-9.22
-11.38
-13.98
-17.20
-20.92
-24.58
-27.32
-28.17
-26.49
-22.22
-15.98
-8.87
-2.08
3.52
7.57
10.23
11.95
13.14
14.00
14.45
14.34
13.63
12.52
11.40
10.69
10.64
11.24
12.27
13.41
14.41
15.13
15.59
15.83
15.80
15.36
14.33
12.60
10.20
7.36
4.41
1.65
-0.76
-2.86
-4.81
-6.81
-8.94
-11.13
-13.21
-15.05
-16.64
-18.15
-19.93
-22.27
-25.28
-28.69
-31.86
-33.91
-34.01
-31.68
-26.98
-20.51
-13.21
-6.07
0.15
5.07
8.64
11.06
12.55
13.32
13.54
13.31
12.78
12.10
11.45
11.01
10.92
11.25
11.98
12.97
14.10
15.18
16.03
16.52
16.53
16.01
14.94
13.40
11.50
9.40
7.22
5.03
2.81
0.48
-2.00
-4.64
-7.31
-9.82
-11.95
-13.60
-14.85
-16.01
-17.52
-19.75
-22.82
-26.40
-29.80
-32.09
-32.46
-30.46
-26.13
-20.05
-13.06
-6.08
0.15
5.15
8.77
11.04
12.14
12.30
11.76
10.77
9.62
8.60
7.98
7.89
8.34
9.20
10.25
11.26
12.11
12.71
13.03
13.05
12.73
12.05
11.03
9.69
8.07
6.17
3.98
1.47
-1.27
-4.05
-6.65
-8.84
-10.57
-11.97
-13.32
-14.94
-17.11
-19.91
-23.19
-26.56
-29.43
-31.14
-31.13
-29.09
-25.11
-19.64
-13.38
-7.08
-1.38
3.34
6.93
9.41
10.88
11.47
11.36
10.68
9.60
8.28
6.90
5.71
4.96
4.86
5.47
6.66
8.13
9.48
10.42
10.79
10.61
9.94
8.83
7.25
5.16
2.65
-0.10
-2.80
-5.22
-7.28
-9.16
-11.12
-13.48
-16.40
-19.78
-23.31
-26.50
-28.76
-29.53
-28.40
-25.22
-20.19
-13.87
-7.09
-0.67
4.74
8.84
11.67
13.49
14.56
15.02
14.93
14.27
13.14
11.78
10.57
9.84
9.83
10.54
11.76
13.13
14.26
14.88
14.91
14.42
13.56
12.48
11.19
9.63
7.68
5.27
2.47
-0.54
-3.52
-6.24
-8.59
-10.56
-12.25
-13.83
-15.51
-17.57
-20.26
-23.69
-27.67
-31.68
-34.85
-36.27
-35.23
-31.54
-25.61
-18.32
-10.68
-3.59
2.40
7.07
10.47
12.75
14.06
14.55
14.38
13.75
12.88
12.03
11.39
11.14
11.36
12.07
13.15
14.37
15.46
16.15
16.31
16.00
15.33
14.42
13.27
11.72
9.58
6.75
3.36
-0.24
-3.62
-6.44
-8.63
-10.35
-11.94
-13.78
-16.17
-19.24
-22.95
-26.98
-30.77
-33.53
-34.50
-33.10
-29.21
-23.22
-15.90
-8.23
-1.06
5.05
9.85
13.32
15.59
16.77
16.99
16.44
15.37
14.11
13.02
12.36
12.23
12.60
13.25
13.98
14.64
15.19
15.73
16.29
16.79
16.96
16.42
14.84
12.09
8.39
4.24
0.24
-3.13
-5.70
-7.58
-9.16
-10.85
-13.00
-15.83
-19.34
-23.36
-27.49
-31.10
-33.46
-33.84
-31.79
-27.25
-20.70
-13.00
-5.22
1.76
7.33
11.26
13.67
14.78
14.85
14.16
12.96
11.53
10.18
9.14
8.60
8.61
9.06
9.82
10.69
11.55
12.30
12.90
13.30
13.37
12.90
11.71
9.68
6.91
3.71
0.48
-2.45
-4.98
-7.26
-9.66
-12.56
-16.16
-20.37
-24.79
-28.73
-31.40
-32.05
-30.27
-26.07
-20.00
-12.92
-5.79
0.63
5.94
10.07
13.17
15.37
16.73
17.19
16.74
15.56
13.98
12.48
11.50
11.28
11.81
12.80
13.88
14.71
15.13
15.18
14.98
14.62
14.07
13.13
11.55
9.21
6.14
2.65
-0.87
-4.04
-6.68
-8.88
-10.91
-13.08
-15.68
-18.85
-22.57
-26.64
-30.64
-33.97
-35.87
-35.61
-32.77
-27.38
-20.05
-11.77
-3.64
3.46
9.06
13.08
15.69
17.13
17.61
17.30
16.38
15.13
13.88
13.00
12.69
12.99
13.71
14.61
15.45
16.08
16.46
16.54
16.23
15.36
13.80
11.50
8.61
5.38
2.05
-1.21
-4.40
-7.64
-11.06
-14.76
-18.66
-22.51
-25.88
-28.16
-28.79
-27.29
-23.53
-17.81
-10.78
-3.36
3.59
9.40
13.74
16.60
18.18
18.74
18.53
17.72
16.46
14.96
13.50
12.39
11.91
12.13
12.89
13.86
14.60
14.76
14.21
13.00
11.32
9.40
7.40
5.32
3.13
0.73
-1.97
-4.97
-8.28
-11.92
-15.94
-20.32
-24.83
-28.95
-31.88
-32.75
-30.89
-26.22
-19.23
-10.96
-2.60
4.81
10.66
14.78
17.39
18.86
19.53
19.61
19.20
18.30
16.99
15.48
14.07
13.12
12.84
13.24
14.14
15.19
16.00
16.28
15.83
14.58
12.56
9.91
6.85
3.67
0.61
-2.24
-4.96
-7.78
-11.01
-14.83
-19.15
-23.57
-27.42
-29.90
-30.31
-28.25
-23.76
-17.33
-9.77
-2.06
4.97
10.71
14.89
17.55
18.88
19.18
18.66
17.59
16.20
14.77
13.59
12.89
12.76
13.12
13.74
14.35
14.79
14.97
14.93
14.67
14.09
13.02
11.30
8.83
5.72
2.29
-1.10
-4.15
-6.76
-9.06
-11.43
-14.29
-17.93
-22.25
-26.76
-30.58
-32.65
-32.14
-28.70
-22.65
-14.83
-6.45
1.38
7.83
12.51
15.47
16.99
17.45
17.20
16.49
15.52
14.41
13.27
12.23
11.47
11.08
11.13
11.56
12.21
12.88
13.33
13.38
12.87
11.74
9.97
7.68
5.05
2.29
-0.44
-3.10
-5.78
-8.69
-11.97
-15.69
-19.65
-23.44
-26.46
-28.06
-27.67
-24.98
-20.08
-13.42
-5.81
1.83
8.62
13.94
17.49
19.33
19.70
19.01
17.66
16.00
14.35
12.94
11.98
11.57
11.71
12.27
13.03
13.76
14.29
14.56
14.52
14.16
13.38
12.05
10.06
7.41
4.28
0.97
-2.17
-4.95
-7.37
-9.63
-12.04
-14.91
-18.31
-22.05
-25.62
-28.25
-29.17
-27.77
-23.85
-17.77
-10.33
-2.64
4.28
9.73
13.45
15.64
16.69
17.02
16.91
16.52
16.01
15.54
15.32
15.46
15.96
16.68
17.44
18.13
18.75
19.32
19.76
19.91
19.52
18.40
16.54
14.12
11.43
8.76
6.26
3.97
1.84
-0.19
-2.16
-4.10
-6.08
-8.11
-10.20
-12.31
-14.39
-16.46
-18.63
-21.07
-23.93
-27.19
-30.52
-33.34
-34.87
-34.40
-31.59
-26.58
-19.97
-12.68
-5.61
0.56
5.50
9.16
11.72
13.37
14.29
14.61
14.48
14.07
13.59
13.24
13.14
13.32
13.72
14.22
14.69
15.13
15.58
16.11
16.71
17.22
17.43
17.09
16.11
14.54
12.56
10.44
8.40
6.58
5.02
3.65
2.40
1.16
-0.14
-1.57
-3.16
-4.91
-6.81
-8.78
-10.75
-12.62
-14.32
-15.81
-17.10
-18.32
-19.68
-21.50
-24.00
-27.18
-30.69
-33.79
-35.58
-35.24
-32.37
-27.18
-20.36
-12.87
-5.64
0.65
5.59
8.99
10.87
11.38
10.83
9.63
8.26
7.09
6.35
6.11
6.33
6.93
7.84
8.94
10.13
11.24
12.10
12.61
12.71
12.45
11.91
11.17
10.25
9.15
7.81
6.20
4.35
2.32
0.19
-1.95
-4.05
-6.06
-7.94
-9.65
-11.11
-12.32
-13.36
-14.44
-15.83
-17.73
-20.21
-23.11
-26.02
-28.37
-29.57
-29.15
-26.92
-23.02
-17.88
-12.12
-6.36
-1.11
3.29
6.71
9.13
10.62
11.21
10.97
10.01
8.52
6.83
5.28
4.21
3.82
4.16
5.04
6.17
7.21
7.90
8.11
7.88
7.35
6.69
5.96
5.15
4.11
2.72
0.90
-1.30
-3.71
-6.11
-8.29
-10.14
-11.71
-13.19
-14.82
-16.85
-19.31
-21.98
-24.33
-25.67
-25.37
-23.12
-19.07
-13.73
-7.89
-2.27
2.63
6.58
9.59
11.74
13.10
13.69
13.54
12.70
11.33
9.70
8.13
6.96
6.43
6.57
7.28
8.29
9.27
9.98
10.23
9.99
9.29
8.21
6.87
5.36
3.81
2.30
0.83
-0.71
-2.44
-4.48
-6.80
-9.24
-11.56
-13.55
-15.16
-16.56
-18.05
-20.02
-22.71
-26.09
-29.74
-32.89
-34.64
-34.21
-31.28
-26.06
-19.32
-12.09
-5.35
0.26
4.52
7.54
9.56
10.75
11.16
10.84
9.90
8.59
7.25
6.24
5.75
5.84
6.40
7.25
8.16
8.95
9.49
9.72
9.66
9.37
8.92
8.30
7.40
6.02
4.01
1.39
-1.63
-4.66
-7.37
-9.59
-11.42
-13.17
-15.18
-17.67
-20.68
-24.05
-27.43
-30.39
-32.40
-32.97
-31.70
-28.41
-23.23
-16.69
-9.53
-2.59
3.41
8.05
11.22
13.06
13.84
13.81
13.20
12.17
10.88
9.59
8.56
8.05
8.22
9.04
10.31
11.72
12.98
13.90
14.46
14.72
14.73
14.44
13.73
12.42
10.44
7.90
5.11
2.43
0.07
-1.94
-3.84
-5.90
-8.32
-11.11
-14.20
-17.50
-21.00
-24.69
-28.40
-31.62
-33.60
-33.55
-30.95
-25.84
-18.87
-11.00
-3.26
3.62
9.21
13.37
16.07
17.38
17.39
16.34
14.61
12.68
10.95
9.70
9.06
8.98
9.33
9.96
10.73
11.52
12.24
12.81
13.10
12.99
12.32
10.99
9.01
6.53
3.80
1.06
-1.49
-3.83
-6.08
-8.47
-11.22
-14.47
-18.15
-21.92
-25.17
-27.09
-26.97
-24.40
-19.52
-12.97
-5.73
1.24
7.19
11.79
15.02
17.04
18.04
18.14
17.45
16.10
14.30
12.41
10.78
9.73
9.39
9.70
10.46
11.41
12.38
13.22
13.85
14.15
13.95
13.05
11.37
8.95
6.02
2.85
-0.28
-3.22
-5.96
-8.61
-11.36
-14.41
-17.88
-21.74
-25.70
-29.16
-31.33
-31.48
-29.14
-24.40
-17.82
-10.28
-2.63
4.44
10.54
15.47
19.12
21.41
22.28
21.86
20.41
18.36
16.21
14.45
13.42
13.28
14.00
15.32
16.87
18.28
19.24
19.64
19.56
19.13
18.46
17.55
16.26
14.45
12.02
9.00
5.58
2.06
-1.26
-4.17
-6.63
-8.79
-10.88
-13.19
-15.94
-19.23
-23.03
-27.07
-30.92
-33.87
-35.17
-34.19
-30.64
-24.79
-17.36
-9.33
-1.65
5.03
10.43
14.54
17.42
19.09
19.56
18.94
17.54
15.86
14.38
13.47
13.26
13.64
14.37
15.25
16.14
16.96
17.69
18.20
18.32
17.89
16.82
15.16
13.04
10.66
8.18
5.66
3.12
0.54
-2.06
-4.57
-6.86
-8.87
-10.71
-12.70
-15.23
-18.54
-22.52
-26.59
-29.83
-31.24
-30.14
-26.39
-20.47
-13.32
-5.95
0.82
6.55
11.11
14.57
17.05
18.61
19.33
19.31
18.78
18.01
17.32
16.94
16.97
17.40
18.10
18.87
19.52
19.88
19.88
19.53
18.90
18.06
17.04
15.79
14.23
12.28
9.93
7.26
4.42
1.56
-1.17
-3.70
-6.00
-8.08
-10.06
-12.09
-14.36
-17.04
-20.18
-23.66
-27.15
-30.10
-31.85
-31.84
-29.73
-25.61
-19.92
-13.38
-6.72
-0.53
4.79
9.09
12.27
14.30
15.22
15.12
14.28
13.05
11.80
10.84
10.34
10.35
10.86
11.75
12.84
13.89
14.67
14.98
14.78
14.13
13.14
11.92
10.50
8.84
6.88
4.61
2.08
-0.58
-3.22
-5.69
-7.90
-9.84
-11.62
-13.42
-15.48
-18.01
-21.03
-24.31
-27.35
-29.48
-29.99
-28.42
-24.70
-19.19
-12.59
-5.77
0.49
5.60
9.30
11.62
12.77
13.08
12.82
12.21
11.37
10.44
9.58
8.96
8.76
9.01
9.61
10.37
11.06
11.55
11.83
11.90
11.73
11.23
10.26
8.74
6.70
4.31
1.74
-0.83
-3.35
-5.83
-8.30
-10.81
-13.40
-16.17
-19.20
-22.42
-25.54
-27.94
-28.87
-27.63
-23.96
-18.17
-11.09
-3.78
2.80
8.08
11.89
14.37
15.79
16.35
16.16
15.34
14.05
12.56
11.18
10.20
9.83
10.16
11.12
12.51
14.04
15.37
16.18
16.28
15.69
14.55
13.12
11.60
10.06
8.41
6.48
4.10
1.25
-1.94
-5.18
-8.22
-10.82
-12.93
-14.63
-16.14
-17.70
-19.55
-21.92
-24.97
-28.61
-32.46
-35.79
-37.69
-37.35
-34.37
-28.95
-21.85
-14.14
-6.83
-0.61
4.21
7.67
9.97
11.29
11.77
11.52
10.72
9.63
8.58
7.86
7.65
7.98
8.69
9.57
10.42
11.17
11.85
12.50
13.09
13.44
13.34
12.58
11.16
9.24
7.07
4.87
2.69
0.45
-1.99
-4.65
-7.39
-9.91
-11.89
-13.19
-13.92
-14.42
-15.15
-16.58
-19.01
-22.41
-26.39
-30.18
-32.79
-33.27
-31.07
-26.20
-19.30
-11.35
-3.44
3.64
9.45
13.88
17.01
18.98
19.98
20.16
19.76
19.01
18.15
17.34
16.66
16.18
15.97
16.10
16.60
17.41
18.36
19.20
19.70
19.76
19.35
18.53
17.33
15.76
13.75
11.25
8.28
4.99
1.62
-1.52
-4.27
-6.57
-8.52
-10.33
-12.18
-14.25
-16.62
-19.38
-22.57
-26.02
-29.33
-31.83
-32.71
-31.31
-27.43
-21.44
-14.20
-6.77
-0.07
5.33
9.24
11.76
13.08
13.44
13.00
11.96
10.54
9.00
7.59
6.52
5.90
5.72
5.94
6.45
7.15
7.97
8.81
9.53
9.93
9.79
8.89
7.19
4.79
1.96
-0.95
-3.63
-5.94
-7.91
-9.80
-11.98
-14.74
-18.20
-22.17
-26.08
-29.14
-30.47
-29.43
-25.81
-19.95
-12.61
-4.81
2.53
8.70
13.33
16.33
17.83
18.07
17.32
15.88
14.01
12.02
10.16
8.67
7.72
7.38
7.61
8.23
8.99
9.66
10.10
10.23
10.06
9.60
8.77
7.50
5.74
3.56
1.14
-1.33
-3.73
-6.13
-8.72
-11.78
-15.50
-19.89
-24.62
-29.07
-32.39
-33.72
-32.46
-28.43
-22.06
-14.18
-5.85
1.97
8.65
13.92
17.79
20.37
21.76
22.03
21.29
19.75
17.78
15.83
14.32
13.56
13.63
14.42
15.62
16.86
17.84
18.35
18.37
17.91
17.06
15.87
14.34
12.45
10.19
7.57
4.67
1.60
-1.50
-4.48
-7.26
-9.82
-12.19
-14.46
-16.75
-19.23
-22.06
-25.36
-29.00
-32.57
-35.32
-36.40
-35.06
-31.02
-24.58
-16.59
-8.14
-0.28
6.32
11.38
14.94
17.20
18.35
18.54
17.92
16.72
15.25
13.89
12.99
12.73
13.09
13.85
14.70
15.39
15.78
15.88
15.79
15.57
15.22
14.63
13.63
12.08
9.93
7.22
4.12
0.83
-2.44
-5.53
-8.32
-10.78
-12.98
-15.08
-17.36
-20.08
-23.39
-27.16
-30.87
-33.70
-34.74
-33.28
-29.14
-22.74
-14.98
-6.93
0.50
6.73
11.56
15.01
17.19
18.22
18.25
17.46
16.18
14.79
13.66
13.05
13.03
13.54
14.40
15.44
16.45
17.29
17.87
18.08
17.86
17.23
16.19
14.79
13.05
11.01
8.68
6.07
3.25
0.39
-2.33
-4.73
-6.81
-8.69
-10.65
-12.95
-15.77
-19.11
-22.83
-26.69
-30.42
-33.64
-35.84
-36.45
-34.92
-31.00
-24.82
-17.00
-8.47
-0.21
6.99
12.68
16.76
19.36
20.70
20.94
20.28
18.88
17.00
14.96
13.11
11.81
11.27
11.62
12.80
14.59
16.61
18.40
19.54
19.75
19.05
17.66
15.94
14.22
12.60
10.94
8.95
6.37
3.14
-0.52
-4.24
-7.64
-10.46
-12.69
-14.47
-16.11
-17.90
-20.13
-22.99
-26.51
-30.44
-34.20
-36.93
-37.68
-35.75
-31.00
-23.84
-15.27
-6.42
1.68
8.38
13.38
16.74
18.64
19.32
19.03
18.02
16.57
14.97
13.46
12.28
11.59
11.54
12.19
13.50
15.29
17.18
18.74
19.59
19.51
18.56
17.02
15.22
13.45
11.75
10.06
8.20
6.04
3.55
0.82
-2.07
-5.03
-8.06
-11.14
-14.20
-17.13
-19.85
-22.37
-24.81
-27.35
-30.04
-32.67
-34.69
-35.35
-33.96
-30.17
-24.16
-16.62
-8.54
-0.91
5.54
10.46
13.82
15.77
16.52
16.21
14.98
13.07
10.80
8.67
7.09
6.34
6.43
7.13
8.09
9.02
9.81
10.49
11.14
11.77
12.22
12.21
11.43
9.69
7.03
3.72
0.15
-3.27
-6.30
-8.90
-11.23
-13.61
-16.38
-19.72
-23.59
-27.64
-31.23
-33.59
-34.02
-32.08
-27.80
-21.61
-14.29
-6.71
0.42
6.66
11.80
15.76
18.47
19.84
19.81
18.54
16.34
13.70
11.16
9.16
7.94
7.57
7.94
8.81
9.91
11.00
11.88
12.42
12.57
12.26
11.44
10.01
7.93
5.26
2.21
-0.95
-3.97
-6.74
-9.28
-11.76
-14.30
-16.98
-19.81
-22.83
-26.08
-29.50
-32.79
-35.38
-36.46
-35.29
-31.47
-25.18
-17.10
-8.31
0.12
7.34
12.91
16.78
19.13
20.26
20.42
19.79
18.52
16.77
14.82
13.04
11.79
11.35
11.79
12.95
14.51
16.10
17.40
18.21
18.45
18.13
17.34
16.17
14.67
12.84
10.65
8.05
5.02
1.59
-2.14
-5.99
-9.75
-13.21
-16.22
-18.74
-20.90
-22.97
-25.28
-28.17
-31.77
-35.93
-40.11
-43.44
-44.93
-43.76
-39.60
-32.75
-24.07
-14.73
-5.78
2.04
8.39
13.28
16.80
19.02
19.98
19.77
18.60
16.86
15.06
13.69
13.08
13.33
14.26
15.58
16.96
18.13
18.99
19.48
19.59
19.29
18.50
17.20
15.41
13.23
10.79
8.17
5.40
2.48
-0.63
-3.87
-7.15
-10.37
-13.46
-16.46
-19.48
-22.75
-26.44
-30.61
-34.99
-38.95
-41.64
-42.20
-40.08
-35.20
-28.10
-19.63
-10.76
-2.32
5.17
11.36
16.10
19.26
20.85
20.99
19.98
18.30
16.46
14.94
14.07
13.96
14.52
15.48
16.50
17.29
17.76
17.97
18.04
18.05
17.90
17.30
15.95
13.65
10.47
6.70
2.74
-1.07
-4.53
-7.66
-10.58
-13.48
-16.56
-20.01
-23.94
-28.28
-32.74
-36.68
-39.29
-39.74
-37.50
-32.50
-25.25
-16.66
-7.76
0.55
7.70
13.39
17.55
20.17
21.24
20.86
19.29
17.03
14.67
12.78
11.71
11.51
12.01
12.91
13.92
14.85
15.66
16.37
17.01
17.52
17.71
17.29
15.97
13.58
10.22
6.21
2.06
-1.81
-5.14
-8.02
-10.73
-13.65
-17.08
-21.18
-25.89
-30.93
-35.71
-39.37
-40.95
-39.63
-35.05
-27.52
-18.02
-7.86
1.63
9.56
15.55
19.71
22.39
23.94
24.57
24.36
23.35
21.68
19.67
17.78
16.50
16.20
16.94
18.46
20.28
21.86
22.84
23.13
22.82
22.10
21.07
19.68
17.81
15.32
12.16
8.49
4.55
0.61
-3.08
-6.40
-9.36
-12.09
-14.78
-17.66
-20.95
-24.85
-29.41
-34.42
-39.37
-43.41
-45.46
-44.58
-40.25
-32.70
-22.85
-12.08
-1.79
7.04
14.00
19.14
22.74
25.03
26.13
26.10
25.12
23.55
21.85
20.50
19.83
19.95
20.77
22.08
23.61
25.11
26.31
27.04
27.21
26.82
25.93
24.56
22.65
20.08
16.74
12.68
8.11
3.43
-1.00
-4.97
-8.48
-11.69
-14.83
-18.01
-21.30
-24.75
-28.44
-32.51
-36.92
-41.24
-44.62
-45.90
-44.06
-38.70
-30.26
-19.92
-9.20
0.57
8.58
14.60
18.82
21.57
23.06
23.46
22.90
21.57
19.81
17.97
16.45
15.54
15.44
16.17
17.58
19.33
20.97
22.09
22.46
22.07
21.11
19.79
18.25
16.47
14.30
11.60
8.31
4.51
0.41
-3.77
-7.79
-11.49
-14.73
-17.51
-19.92
-22.21
-24.75
-27.97
-32.08
-36.92
-41.84
-45.75
-47.42
-45.84
-40.62
-32.18
-21.63
-10.46
-0.09
8.51
14.95
19.33
21.97
23.22
23.32
22.48
20.96
19.18
17.62
16.69
16.56
17.08
17.89
18.59
18.98
19.07
19.10
19.25
19.55
19.73
19.38
18.09
15.66
12.17
7.91
3.38
-0.98
-4.88
-8.25
-11.21
-14.06
-17.16
-20.81
-25.16
-30.08
-35.05
-39.21
-41.54
-41.15
-37.60
-31.11
-22.49
-12.91
-3.55
4.71
11.41
16.41
19.75
21.50
21.74
20.65
18.57
16.03
13.62
11.81
10.83
10.60
10.89
11.44
12.11
12.91
13.89
15.02
16.11
16.78
16.63
15.39
12.97
9.51
5.34
0.87
-3.52
-7.50
-10.97
-14.02
-16.99
-20.33
-24.43
-29.40
-34.86
-39.88
-43.27
-43.87
-41.01
-34.74
-25.86
-15.68
-5.57
3.43
10.80
16.45
20.57
23.34
24.86
25.14
24.24
22.42
20.11
17.86
16.15
15.29
15.31
16.04
17.16
18.34
19.33
19.97
20.22
20.12
19.65
18.72
17.15
14.76
11.46
7.31
2.60
-2.25
-6.78
-10.68
-13.86
-16.49
-18.94
-21.64
-24.95
-29.08
-33.95
-39.17
-44.00
-47.48
-48.62
-46.68
-41.47
-33.43
-23.58
-13.18
-3.39
4.97
11.62
16.58
20.03
22.09
22.82
22.25
20.63
18.42
16.22
14.64
14.03
14.42
15.51
16.87
18.09
18.93
19.36
19.48
19.40
19.16
18.63
17.62
15.89
13.27
9.79
5.67
1.27
-3.02
-6.96
-10.51
-13.81
-17.14
-20.77
-24.89
-29.56
-34.63
-39.70
-44.08
-46.86
-47.10
-44.18
-38.00
-29.13
-18.67
-7.94
1.90
10.10
16.39
20.88
23.79
25.29
25.50
24.52
22.63
20.33
18.28
17.12
17.16
18.29
20.00
21.62
22.64
22.90
22.58
22.01
21.45
20.89
20.11
18.75
16.57
13.54
9.83
5.73
1.57
-2.43
-6.15
-9.62
-12.99
-16.47
-20.28
-24.56
-29.35
-34.47
-39.47
-43.64
-46.05
-45.86
-42.54
-36.12
-27.25
-17.07
-6.91
2.15
9.48
14.96
18.77
21.20
22.45
22.59
21.71
20.03
17.94
15.99
14.67
14.24
14.67
15.66
16.79
17.76
18.46
18.93
19.20
19.14
18.41
16.65
13.68
9.72
5.31
1.08
-2.56
-5.56
-8.27
-11.18
-14.74
-19.13
-24.27
-29.77
-34.97
-38.96
-40.79
-39.63
-35.18
-27.77
-18.36
-8.23
1.36
9.56
15.95
20.56
23.59
25.26
25.71
25.04
23.38
21.03
18.44
16.17
14.72
14.34
14.95
16.20
17.60
18.78
19.55
19.87
19.80
19.35
18.45
16.96
14.75
11.80
8.21
4.26
0.26
-3.48
-6.79
-9.66
-12.33
-15.09
-18.27
-22.07
-26.49
-31.37
-36.34
-40.83
-44.08
-45.27
-43.69
-39.02
-31.54
-22.07
-11.83
-2.01
6.48
13.18
18.04
21.21
22.90
23.32
22.68
21.28
19.51
17.81
16.57
16.08
16.39
17.39
18.76
20.09
20.98
21.19
20.72
19.80
18.73
17.68
16.63
15.29
13.31
10.50
6.94
2.95
-1.06
-4.79
-8.14
-11.22
-14.23
-17.34
-20.71
-24.45
-28.59
-33.02
-37.31
-40.69
-42.18
-40.93
-36.54
-29.30
-20.15
-10.36
-1.15
6.65
12.68
16.99
19.84
21.48
22.08
21.76
20.63
18.93
17.02
15.34
14.31
14.18
14.96
16.41
18.14
19.72
20.83
21.34
21.22
20.56
19.42
17.81
15.74
13.23
10.33
7.12
3.70
0.20
-3.30
-6.66
-9.78
-12.59
-15.13
-17.54
-20.11
-23.13
-26.85
-31.25
-36.01
-40.45
-43.62
-44.52
-42.43
-37.12
-29.04
-19.23
-9.02
0.34
8.00
13.66
17.47
19.80
21.02
21.37
20.98
20.01
18.72
17.43
16.49
16.10
16.30
16.95
17.78
18.58
19.20
19.59
19.74
19.65
19.29
18.57
17.45
15.89
13.88
11.49
8.80
5.88
2.80
-0.41
-3.67
-6.89
-9.94
-12.69
-15.10
-17.23
-19.25
-21.44
-24.02
-27.17
-30.80
-34.61
-38.00
-40.23
-40.55
-38.44
-33.76
-26.92
-18.75
-10.30
-2.59
3.73
8.46
11.74
13.89
15.17
15.69
15.45
14.50
13.07
11.55
10.39
9.90
10.11
10.83
11.75
12.60
13.24
13.64
13.80
13.65
13.11
12.05
10.35
8.02
5.12
1.88
-1.43
-4.55
-7.33
-9.82
-12.21
-14.80
-17.82
-21.35
-25.29
-29.32
-32.92
-35.43
-36.17
-34.57
-30.46
-24.11
-16.29
-8.01
-0.25
6.32
11.41
15.03
17.31
18.38
18.35
17.34
15.61
13.56
11.62
10.20
9.51
9.55
10.10
10.82
11.36
11.53
11.37
11.12
11.00
11.10
11.17
10.75
9.40
6.89
3.42
-0.47
-4.17
-7.27
-9.68
-11.65
-13.59
-15.87
-18.74
-22.26
-26.36
-30.80
-35.09
-38.46
-39.99
-38.88
-34.76
-27.95
-19.34
-10.20
-1.74
5.22
10.41
13.95
16.15
17.32
17.64
17.20
16.11
14.57
12.87
11.38
10.38
10.03
10.31
11.06
12.00
12.85
13.42
13.64
13.58
13.34
12.97
12.44
11.58
10.21
8.20
5.54
2.32
-1.21
-4.81
-8.24
-11.37
-14.17
-16.73
-19.23
-21.87
-24.89
-28.43
-32.46
-36.68
-40.47
-42.96
-43.26
-40.73
-35.30
-27.52
-18.45
-9.34
-1.22
5.29
10.02
13.15
14.93
15.65
15.53
14.80
13.72
12.61
11.78
11.40
11.53
12.08
12.86
13.66
14.32
14.78
15.05
15.20
15.27
15.20
14.88
14.07
12.55
10.21
7.09
3.38
-0.58
-4.46
-7.97
-11.01
-13.58
-15.84
-18.05
-20.51
-23.51
-27.23
-31.65
-36.37
-40.64
-43.44
-43.79
-41.09
-35.42
-27.48
-18.39
-9.30
-1.07
5.87
11.42
15.63
18.52
20.09
20.39
19.63
18.20
16.61
15.31
14.60
14.55
15.07
15.94
16.93
17.84
18.56
19.04
19.30
19.31
19.02
18.37
17.23
15.51
13.18
10.29
6.94
3.28
-0.49
-4.16
-7.56
-10.62
-13.36
-15.95
-18.69
-21.87
-25.70
-30.11
-34.70
-38.71
-41.17
-41.17
-38.16
-32.17
-23.87
-14.37
-4.88
3.55
10.34
15.27
18.51
20.32
21.01
20.83
20.01
18.78
17.43
16.25
15.49
15.27
15.56
16.16
16.83
17.33
17.54
17.50
17.31
16.99
16.46
15.47
13.76
11.19
7.90
4.20
0.55
-2.78
-5.70
-8.43
-11.27
-14.59
-18.52
-23.04
-27.84
-32.41
-36.04
-37.95
-37.43
-34.10
-28.09
-20.09
-11.12
-2.30
5.53
11.95
16.85
20.32
22.40
23.08
22.40
20.59
18.15
15.76
14.04
13.30
13.49
14.23
15.10
15.82
16.36
16.83
17.30
17.66
17.63
16.89
15.24
12.74
9.61
6.17
2.65
-0.78
-4.07
-7.17
-10.10
-13.01
-16.14
-19.83
-24.27
-29.25
-34.13
-37.83
-39.24
-37.55
-32.62
-25.05
-15.95
-6.59
1.96
9.11
14.71
18.89
21.86
23.75
24.57
24.34
23.19
21.41
19.46
17.77
16.69
16.38
16.75
17.55
18.44
19.12
19.45
19.40
19.09
18.68
18.18
17.48
16.30
14.37
11.59
8.05
4.11
0.20
-3.38
-6.45
-9.11
-11.59
-14.20
-17.24
-20.92
-25.34
-30.35
-35.49
-39.98
-42.83
-43.14
-40.36
-34.56
-26.43
-17.11
-7.78
0.60
7.52
12.91
16.91
19.68
21.37
21.99
21.62
20.47
18.89
17.38
16.37
16.10
16.60
17.61
18.78
19.72
20.18
20.09
19.56
18.79
17.94
17.07
16.04
14.64
12.65
9.97
6.69
3.03
-0.71
-4.27
-7.50
-10.41
-13.10
-15.78
-18.64
-21.88
-25.59
-29.73
-33.99
-37.82
-40.39
-40.84
-38.58
-33.47
-26.00
-17.12
-7.95
0.46
7.48
12.85
16.63
19.05
20.34
20.68
20.23
19.17
17.77
16.32
15.14
14.53
14.61
15.37
16.57
17.83
18.77
19.15
18.92
18.19
17.19
16.06
14.84
13.38
11.52
9.08
6.02
2.50
-1.18
-4.66
-7.69
-10.22
-12.42
-14.61
-17.16
-20.32
-24.13
-28.40
-32.66
-36.25
-38.36
-38.25
-35.49
-30.05
-22.46
-13.68
-4.82
3.10
9.45
14.06
17.05
18.71
19.30
18.99
17.98
16.52
14.92
13.54
12.60
12.14
12.00
11.99
12.00
12.07
12.30
12.74
13.26
13.54
13.22
12.05
10.00
7.28
4.21
1.11
-1.81
-4.51
-7.02
-9.48
-12.04
-14.88
-18.17
-21.95
-26.10
-30.24
-33.72
-35.72
-35.52
-32.68
-27.26
-19.86
-11.45
-3.14
4.18
10.00
14.18
16.84
18.22
18.49
17.79
16.28
14.24
12.10
10.30
9.19
8.86
9.16
9.77
10.38
10.81
11.01
11.09
11.17
11.21
11.04
10.34
8.82
6.34
3.03
-0.73
-4.50
-7.88
-10.70
-13.02
-15.14
-17.42
-20.21
-23.69
-27.75
-31.90
-35.28
-36.97
-36.19
-32.63
-26.60
-18.92
-10.64
-2.75
4.12
9.66
13.82
16.65
18.21
18.58
17.92
16.52
14.76
13.04
11.69
10.86
10.54
10.54
10.71
10.95
11.32
11.89
12.67
13.45
13.85
13.43
11.90
9.22
5.67
1.75
-2.05
-5.36
-8.12
-10.52
-12.93
-15.75
-19.25
-23.44
-27.98
-32.22
-35.28
-36.32
-34.75
-30.49
-23.95
-15.95
-7.44
0.69
7.80
13.55
17.83
20.67
22.12
22.32
21.44
19.80
17.78
15.81
14.27
13.45
13.46
14.26
15.60
17.11
18.41
19.17
19.26
18.72
17.72
16.43
14.93
13.18
11.07
8.45
5.31
1.77
-1.94
-5.53
-8.77
-11.59
-14.05
-16.34
-18.71
-21.36
-24.47
-28.08
-32.08
-36.11
-39.59
-41.71
-41.67
-38.92
-33.36
-25.50
-16.31
-6.98
1.42
8.23
13.22
16.55
18.52
19.44
19.53
18.99
18.00
16.83
15.82
15.29
15.46
16.34
17.72
19.21
20.38
20.91
20.72
19.95
18.84
17.64
16.39
14.95
13.03
10.38
6.97
2.99
-1.13
-4.96
-8.19
-10.74
-12.78
-14.67
-16.80
-19.50
-22.98
-27.14
-31.60
-35.62
-38.24
-38.54
-35.93
-30.42
-22.66
-13.72
-4.79
3.18
9.70
14.64
18.16
20.44
21.64
21.87
21.31
20.19
18.84
17.64
16.90
16.77
17.25
18.13
19.15
20.03
20.60
20.79
20.60
20.09
19.27
18.13
16.62
14.68
12.26
9.37
6.10
2.61
-0.88
-4.17
-7.14
-9.79
-12.25
-14.72
-17.42
-20.52
-24.05
-27.88
-31.68
-34.85
-36.68
-36.44
-33.66
-28.35
-21.05
-12.70
-4.41
2.88
8.63
12.70
15.25
16.53
16.78
16.18
14.96
13.43
11.97
10.95
10.57
10.76
11.33
11.97
12.52
12.93
13.26
13.55
13.74
13.64
13.00
11.59
9.30
6.24
2.67
-1.03
-4.49
-7.48
-10.00
-12.34
-14.90
-18.07
-21.98
-26.31
-30.33
-33.04
-33.53
-31.25
-26.25
-19.15
-10.98
-2.81
4.46
10.31
14.61
17.43
18.95
19.35
18.77
17.40
15.50
13.46
11.71
10.63
10.40
11.00
12.15
13.46
14.54
15.16
15.31
15.08
14.57
13.79
12.60
10.83
8.37
5.31
1.91
-1.49
-4.59
-7.30
-9.69
-12.00
-14.50
-17.39
-20.75
-24.59
-28.77
-32.94
-36.48
-38.58
-38.44
-35.54
-29.92
-22.19
-13.43
-4.77
2.86
9.00
13.60
16.83
18.86
19.77
19.59
18.45
16.68
14.81
13.39
12.82
13.19
14.24
15.53
16.62
17.20
17.24
16.86
16.25
15.52
14.60
13.30
11.37
8.72
5.46
1.87
-1.66
-4.84
-7.55
-9.94
-12.26
-14.83
-17.88
-21.45
-25.48
-29.69
-33.59
-36.49
-37.61
-36.27
-32.24
-25.87
-18.00
-9.67
-1.82
4.98
10.52
14.81
17.90
19.75
20.30
19.65
18.11
16.19
14.49
13.47
13.29
13.86
14.82
15.79
16.44
16.64
16.44
16.01
15.49
14.95
14.30
13.36
11.96
9.96
7.33
4.14
0.55
-3.21
-6.90
-10.30
-13.36
-16.18
-19.00
-22.15
-25.81
-29.90
-33.98
-37.30
-38.94
-38.16
-34.61
-28.54
-20.71
-12.19
-3.99
3.15
8.91
13.28
16.41
18.44
19.44
19.48
18.69
17.36
15.88
14.65
13.98
14.00
14.62
15.57
16.52
17.21
17.55
17.65
17.69
17.74
17.70
17.27
16.09
13.94
10.83
7.05
3.07
-0.68
-3.90
-6.58
-8.89
-11.13
-13.61
-16.55
-20.05
-24.07
-28.39
-32.58
-35.99
-37.85
-37.46
-34.43
-28.86
-21.39
-13.02
-4.81
2.38
8.08
12.19
14.84
16.23
16.57
16.07
14.97
13.57
12.21
11.17
10.60
10.50
10.76
11.21
11.70
12.14
12.44
12.54
12.39
11.90
10.96
9.53
7.61
5.28
2.66
-0.12
-2.96
-5.82
-8.79
-12.04
-15.74
-19.92
-24.36
-28.51
-31.55
-32.65
-31.21
-27.11
-20.78
-13.06
-4.99
2.52
8.85
13.69
16.97
18.77
19.24
18.57
17.06
15.07
13.03
11.35
10.33
10.06
10.43
11.21
12.09
12.79
13.20
13.34
13.32
13.21
12.93
12.24
10.87
8.61
5.50
1.80
-2.03
-5.53
-8.44
-10.78
-12.82
-15.04
-17.87
-21.64
-26.39
-31.75
-36.95
-40.91
-42.52
-41.01
-36.29
-28.94
-20.07
-10.92
-2.48
4.73
10.60
15.23
18.73
21.10
22.34
22.45
21.63
20.19
18.54
17.09
16.12
15.78
16.05
16.75
17.62
18.39
18.92
19.13
19.03
18.55
17.57
15.91
13.43
10.11
6.15
1.91
-2.19
-5.83
-8.90
-11.54
-14.11
-17.00
-20.55
-24.86
-29.71
-34.56
-38.65
-41.11
-41.24
-38.66
-33.48
-26.22
-17.77
-9.04
-0.84
6.28
12.07
16.46
19.44
21.07
21.45
20.81
19.47
17.91
16.61
15.94
16.07
16.89
18.05
19.14
19.79
19.86
19.42
18.74
18.03
17.38
16.60
15.39
13.47
10.72
7.31
3.57
-0.16
-3.65
-6.89
-10.02
-13.16
-16.41
-19.79
-23.32
-27.06
-31.03
-35.08
-38.78
-41.33
-41.83
-39.58
-34.41
-26.84
-17.85
-8.62
-0.12
7.09
12.87
17.29
20.46
22.38
23.03
22.47
20.97
19.03
17.23
16.06
15.77
16.33
17.43
18.67
19.72
20.34
20.51
20.29
19.82
19.18
18.36
17.22
15.62
13.39
10.51
7.05
3.28
-0.52
-4.07
-7.26
-10.11
-12.77
-15.46
-18.36
-21.58
-25.12
-28.80
-32.25
-34.87
-35.95
-34.84
-31.21
-25.15
-17.28
-8.59
-0.18
7.05
12.55
16.21
18.21
18.89
18.60
17.70
16.50
15.27
14.27
13.67
13.53
13.77
14.23
14.75
15.21
15.57
15.82
15.91
15.67
14.92
13.49
11.34
8.60
5.49
2.27
-0.83
-3.72
-6.39
-9.00
-11.82
-15.15
-19.12
-23.52
-27.74
-30.84
-31.83
-30.05
-25.45
-18.61
-10.61
-2.62
4.43
10.03
14.03
16.57
17.84
18.05
17.39
16.09
14.45
12.77
11.33
10.28
9.62
9.24
9.03
8.90
8.84
8.84
8.83
8.67
8.13
7.05
5.36
3.12
0.48
-2.37
-5.29
-8.17
-11.01
-13.96
-17.23
-21.08
-25.61
-30.57
-35.28
-38.70
-39.76
-37.70
-32.42
-24.51
-15.10
-5.49
3.20
10.26
15.45
18.86
20.74
21.38
21.00
19.83
18.13
16.27
14.66
13.67
13.47
14.02
15.11
16.50
17.98
19.38
20.57
21.38
21.63
21.19
20.04
18.32
16.28
14.13
12.00
9.83
7.46
4.62
1.09
-3.24
-8.31
-13.77
-18.93
-22.88
-24.72
-23.85
-20.28
-14.66
-8.13
-1.94
3.01
6.34
8.21
9.04
9.24
9.00
8.30
7.07
5.32
3.26
1.19
-0.58
-1.90
-2.77
-3.27
-3.52
-3.55
-3.38
-2.99
-2.47
-1.98
-1.76
-2.05
-2.95
-4.44
-6.30
-8.28
-10.15
-11.82
-13.37
-15.01
-17.02
-19.63
-22.91
-26.62
-30.16
-32.65
-33.14
-30.89
-25.69
-17.90
-8.37
1.91
12.09
21.65
30.38
38.22
45.12
50.90
55.32
58.19
59.48
59.37
58.27
56.67
55.08
53.82
53.02
52.58
52.23
51.69
50.74
49.35
47.59
45.60
43.50
41.36
39.32
37.57
36.38
36.03
36.60
37.92
39.54
40.90
41.53
41.20
40.03
38.29
36.32
34.30
32.22
29.97
27.40
24.38
20.88
16.91
12.52
7.81
2.93
-1.90
-6.33
-9.96
-12.48
-13.80
-14.16
-14.07
-14.15
-14.85
-16.33
-18.34
-20.48
-22.35
-23.81
-24.96
-26.06
-27.29
-28.65
-29.99
-31.12
-31.95
-32.59
-33.23
-34.01
-34.91
-35.80
-36.53
-37.03
-37.41
-37.89
-38.66
-39.82
-41.28
-42.88
-44.48
-45.98
-47.44
-48.87
-50.27
-51.53
-52.49
-53.12
-53.39
-53.22
-52.54
-51.26
-49.38
-47.01
-44.35
-41.73
-39.56
-38.14
-37.50
-37.52
-37.98
-38.67
-39.46
-40.25
-41.03
-41.93
-43.07
-44.42
-45.85
-47.33
-48.84
-50.42
-52.07
-53.80
-56.11
-59.21
-62.86
-66.46
-69.52
-71.78
-73.25
-74.09
-74.57
-76.03
-79.16
-83.62
-88.30
-92.25
-94.96
-96.29
-96.32
-95.19
-94.72
-95.81
-98.00
-99.86
-100.38
-99.15
-96.28
-91.96
-86.39
-81.79
-79.28
-78.15
-76.57
-73.18
-67.41
-59.40
-49.58
-24.82
18.38
72.27
123.05
161.26
184.95
197.04
201.76
203.30
203.69
201.64
196.52
189.55
183.49
177.85
172.13
165.93
159.20
152.05
142.97
131.40
118.37
106.02
96.64
90.65
87.60
86.47
86.01
84.25
80.27
74.55
68.39
62.69
58.08
54.66
52.03
49.63
46.68
42.92
38.69
34.50
30.54
26.75
23.02
19.35
15.86
12.61
9.66
6.99
4.46
1.80
-1.21
-4.60
-8.33
-12.25
-16.24
-20.23
-24.26
-28.49
-33.13
-38.26
-43.77
-49.43
-54.85
-59.74
-64.00
-67.77
-71.36
-75.06
-78.93
-82.75
-86.10
-88.52
-89.66
-89.40
-87.76
-84.83
-80.72
-75.54
-69.48
-62.85
-55.97
-49.14
-42.49
-36.01
-29.61
-23.31
-17.23
-11.55
-6.32
-1.38
3.64
9.02
14.84
20.77
26.27
30.80
34.07
36.09
37.16
37.58
37.51
36.98
35.88
34.21
32.03
29.54
26.96
24.37
21.75
19.04
16.21
13.28
10.33
7.40
4.51
1.73
-0.81
-2.79
-3.87
-3.78
-2.51
-0.38
2.09
4.35
6.06
7.16
7.87
8.49
9.21
10.08
10.95
11.63
11.97
11.92
11.58
11.11
10.64
10.24
9.90
9.52
8.93
8.06
6.99
5.89
4.99
4.37
3.91
3.41
2.63
1.50
0.13
-1.22
-2.34
-3.15
-3.86
-4.70
-5.77
-7.06
-8.49
-10.02
-11.69
-13.52
-15.53
-17.79
-20.12
-22.15
-23.51
-24.18
-24.35
-24.36
-24.47
-24.83
-25.91
-27.81
-30.22
-32.74
-35.10
-37.21
-39.02
-40.47
-41.58
-43.15
-45.56
-48.46
-51.18
-53.30
-54.52
-54.69
-53.75
-51.77
-49.79
-48.14
-46.12
-42.58
-36.88
-28.87
-18.83
-7.31
10.66
34.78
59.94
80.13
92.41
96.74
94.88
89.33
82.56
76.37
70.58
64.50
57.69
50.06
41.44
32.24
23.22
15.17
8.73
3.67
-0.18
-2.67
-1.83
1.00
4.03
6.39
8.31
9.86
11.22
12.01
11.82
10.46
7.74
4.30
1.04
-1.44
-2.60
-2.86
-2.96
-3.42
-4.32
-5.66
-7.06
-8.09
-8.66
-9.00
-9.67
-11.18
-13.80
-17.44
-21.99
-27.03
-32.07
-36.71
-40.61
-43.48
-45.07
-45.08
-43.18
-39.29
-33.44
-25.96
-17.45
-8.65
-0.33
6.87
12.47
16.25
18.12
18.30
17.26
15.61
13.91
12.50
11.37
10.28
9.02
7.55
6.12
5.03
4.41
4.03
3.36
1.86
-0.78
-4.44
-8.68
-13.00
-17.08
-20.86
-24.49
-28.27
-32.46
-37.33
-43.09
-49.73
-56.92
-63.89
-69.52
-72.49
-71.76
-66.84
-58.06
-46.47
-33.58
-20.96
-9.80
-0.74
6.19
11.26
14.83
17.06
17.88
17.18
14.93
11.39
6.99
2.32
-2.10
-5.84
-8.66
-10.45
-11.30
-11.54
-11.66
-12.27
-13.82
-16.56
-20.35
-24.89
-29.74
-34.52
-39.00
-43.17
-47.26
-51.71
-57.01
-63.43
-70.69
-77.77
-83.00
-84.47
-80.67
-71.07
-56.39
-38.42
-19.43
-1.51
13.91
26.25
35.54
42.13
46.38
48.49
48.63
47.06
44.23
40.88
37.80
35.74
35.15
36.06
38.12
40.72
43.10
44.61
44.78
43.48
40.82
37.14
32.85
28.21
23.36
18.20
12.47
5.78
-2.31
-12.01
-23.13
-34.80
-45.39
-52.88
-55.30
-51.46
-41.42
-26.49
-8.89
9.02
25.32
38.99
49.76
57.85
63.59
67.19
68.70
68.17
65.83
62.13
57.75
53.40
49.68
46.94
45.29
44.60
44.59
44.85
44.89
44.18
42.38
39.31
35.08
29.99
24.39
18.53
12.47
6.09
-0.91
-8.91
-18.22
-28.84
-40.13
-50.71
-58.64
-61.95
-59.26
-50.38
-36.38
-19.24
-1.19
15.86
30.71
42.78
51.96
58.28
61.87
62.92
61.77
58.91
54.94
50.51
46.25
42.73
40.38
39.39
39.69
40.89
42.36
43.41
43.44
42.07
39.27
35.22
30.28
24.76
18.94
12.93
6.76
0.28
-6.79
-14.84
-24.13
-34.50
-45.04
-54.13
-59.67
-59.86
-53.80
-41.92
-25.86
-7.90
9.71
25.34
38.17
48.04
55.09
59.61
61.83
61.99
60.43
57.59
53.99
50.22
46.80
44.10
42.28
41.27
40.80
40.53
40.13
39.30
37.85
35.65
32.70
29.05
24.81
20.13
15.12
9.81
4.09
-2.28
-9.62
-18.10
-27.51
-37.04
-45.24
-50.35
-50.81
-45.82
-35.76
-22.07
-6.84
7.92
20.78
31.09
38.84
44.24
47.48
48.59
47.59
44.69
40.40
35.55
30.99
27.45
25.21
24.17
23.90
23.88
23.71
23.13
22.09
20.60
18.64
16.15
13.07
9.34
4.98
0.03
-5.54
-11.87
-19.14
-27.36
-36.10
-44.38
-50.77
-53.72
-52.11
-45.63
-34.94
-21.54
-7.27
6.17
17.61
26.53
32.87
36.85
38.70
38.60
36.72
33.40
29.21
24.88
21.12
18.46
17.02
16.57
16.67
16.84
16.76
16.24
15.22
13.66
11.49
8.69
5.22
1.19
-3.26
-8.01
-13.05
-18.53
-24.70
-31.75
-39.53
-47.43
-54.29
-58.67
-59.23
-55.21
-46.73
-34.78
-21.00
-7.16
5.29
15.43
22.94
27.89
30.56
31.32
30.54
28.64
26.11
23.38
20.85
18.79
17.33
16.49
16.16
16.16
16.31
16.39
16.16
15.40
13.88
11.50
8.28
4.39
0.15
-4.16
-8.39
-12.59
-17.00
-21.97
-27.78
-34.51
-41.87
-49.11
-55.05
-58.31
-57.70
-52.63
-43.41
-31.24
-17.87
-5.04
5.98
14.62
20.93
25.24
27.91
29.12
29.01
27.72
25.58
23.04
20.60
18.63
17.28
16.50
16.07
15.75
15.41
15.03
14.63
14.23
13.70
12.77
11.10
8.40
4.63
0.01
-4.98
-9.81
-14.10
-17.77
-21.13
-24.77
-29.27
-35.01
-41.83
-48.97
-55.15
-58.88
-58.93
-54.74
-46.66
-35.80
-23.68
-11.73
-0.96
8.12
15.34
20.64
23.98
25.38
25.03
23.39
21.12
18.88
17.11
15.99
15.42
15.19
15.14
15.19
15.32
15.51
15.68
15.67
15.26
14.20
12.33
9.55
5.93
1.71
-2.79
-7.21
-11.27
-14.90
-18.22
-21.55
-25.25
-29.61
-34.67
-40.10
-45.21
-49.04
-50.62
-49.24
-44.69
-37.35
-28.07
-17.99
-8.18
0.50
7.53
12.66
15.88
17.32
17.27
16.10
14.24
12.11
10.07
8.34
7.08
6.34
6.13
6.38
6.95
7.67
8.36
8.82
8.86
8.29
6.93
4.69
1.64
-1.96
-5.73
-9.30
-12.45
-15.21
-17.83
-20.75
-24.37
-28.88
-34.03
-39.10
-43.00
-44.57
-42.99
-38.08
-30.44
-21.18
-11.60
-2.79
4.58
10.19
14.03
16.20
16.88
16.31
14.86
12.95
11.00
9.33
8.10
7.36
7.06
7.12
7.48
8.08
8.81
9.51
9.92
9.76
8.80
6.96
4.30
1.08
-2.44
-6.04
-9.60
-13.18
-16.88
-20.87
-25.35
-30.40
-35.92
-41.40
-45.95
-48.39
-47.71
-43.40
-35.78
-25.93
-15.33
-5.35
3.10
9.70
14.57
17.96
20.05
20.92
20.62
19.33
17.41
15.32
13.53
12.31
11.73
11.65
11.81
11.99
12.13
12.24
12.40
12.55
12.46
11.71
9.93
6.96
3.02
-1.37
-5.64
-9.40
-12.65
-15.74
-19.18
-23.40
-28.50
-34.16
-39.65
-43.98
-46.12
-45.29
-41.21
-34.18
-25.09
-15.13
-5.48
2.97
9.75
14.77
18.21
20.30
21.26
21.29
20.58
19.38
17.94
16.57
15.53
15.03
15.13
15.73
16.58
17.33
17.73
17.66
17.19
16.47
15.60
14.47
12.87
10.51
7.28
3.27
-1.16
-5.59
-9.66
-13.19
-16.19
-18.83
-21.35
-24.05
-27.23
-31.16
-35.90
-41.17
-46.25
-50.03
-51.36
-49.38
-43.86
-35.31
-24.82
-13.77
-3.39
5.44
12.36
17.38
20.76
22.79
23.73
23.80
23.21
22.24
21.23
20.52
20.37
20.88
21.93
23.28
24.68
25.92
26.92
27.64
28.05
28.10
27.73
26.87
25.53
23.74
21.58
19.07
16.28
13.26
10.15
7.11
4.29
1.76
-0.54
-2.79
-5.13
-7.69
-10.45
-13.32
-16.16
-18.82
-21.23
-23.43
-25.52
-27.72
-30.30
-33.54
-37.63
-42.48
-47.61
-52.08
-54.69
-54.31
-50.32
-42.89
-32.97
-22.02
-11.49
-2.40
4.79
10.14
13.89
16.30
17.47
17.49
16.52
14.90
13.09
11.56
10.62
10.39
10.76
11.54
12.49
13.41
14.23
14.91
15.45
15.82
15.90
15.55
14.58
12.83
10.28
7.02
3.30
-0.55
-4.20
-7.39
-10.11
-12.51
-14.87
-17.55
-20.75
-24.55
-28.80
-33.17
-37.08
-39.80
-40.56
-38.72
-34.05
-26.88
-18.06
-8.79
-0.25
6.77
11.95
15.49
17.78
19.21
19.94
19.98
19.31
18.03
16.43
14.96
14.00
13.74
14.06
14.65
15.14
15.33
15.25
15.06
14.93
14.82
14.49
13.60
11.86
9.23
5.90
2.19
-1.53
-5.01
-8.12
-10.85
-13.32
-15.75
-18.46
-21.82
-26.05
-31.08
-36.39
-41.09
-44.05
-44.37
-41.56
-35.80
-27.80
-18.62
-9.39
-1.04
5.84
11.01
14.55
16.72
17.89
18.30
18.14
17.49
16.42
15.06
13.69
12.69
12.42
13.08
14.54
16.41
18.13
19.20
19.34
18.57
17.15
15.41
13.64
11.92
10.17
8.16
5.66
2.57
-1.03
-4.89
-8.69
-12.20
-15.35
-18.25
-21.15
-24.29
-27.85
-31.89
-36.26
-40.64
-44.40
-46.74
-46.80
-43.97
-38.15
-29.89
-20.24
-10.41
-1.48
5.91
11.56
15.58
18.23
19.75
20.33
20.11
19.30
18.15
16.99
16.19
16.03
16.61
17.78
19.16
20.34
21.04
21.15
20.78
20.11
19.27
18.20
16.74
14.73
12.08
8.88
5.33
1.69
-1.85
-5.18
-8.28
-11.22
-14.09
-16.99
-20.04
-23.39
-27.14
-31.26
-35.48
-39.16
-41.44
-41.42
-38.51
-32.69
-24.59
-15.33
-6.14
1.98
8.47
13.22
16.43
18.36
19.22
19.14
18.27
16.89
15.36
14.11
13.46
13.49
14.07
14.90
15.68
16.27
16.67
17.01
17.35
17.58
17.40
16.43
14.40
11.33
7.52
3.47
-0.33
-3.62
-6.42
-8.97
-11.64
-14.76
-18.50
-22.85
-27.52
-31.98
-35.48
-37.20
-36.46
-32.96
-26.96
-19.18
-10.66
-2.41
4.76
10.49
14.69
17.50
19.12
19.75
19.53
18.65
17.33
15.86
14.53
13.63
13.30
13.57
14.32
15.36
16.46
17.44
18.19
18.56
18.40
17.50
15.70
12.94
9.38
5.41
1.49
-2.01
-4.97
-7.54
-10.07
-12.96
-16.47
-20.66
-25.34
-30.14
-34.48
-37.67
-39.00
-37.90
-34.09
-27.79
-19.69
-10.77
-2.14
5.35
11.22
15.44
18.25
19.98
20.89
21.10
20.71
19.83
18.74
17.82
17.43
17.75
18.68
19.96
21.20
22.16
22.70
22.83
22.59
21.98
21.01
19.65
17.91
15.84
13.45
10.69
7.51
3.89
-0.09
-4.17
-8.06
-11.47
-14.33
-16.75
-19.06
-21.69
-24.96
-29.07
-33.86
-38.78
-42.97
-45.38
-45.09
-41.65
-35.27
-26.76
-17.36
-8.23
-0.21
6.32
11.40
15.28
18.20
20.26
21.49
21.91
21.64
20.96
20.23
19.82
19.95
20.67
21.83
23.16
24.39
25.29
25.81
25.90
25.58
24.79
23.46
21.53
19.03
16.07
12.81
9.37
5.89
2.47
-0.77
-3.74
-6.38
-8.71
-10.89
-13.10
-15.61
-18.61
-22.26
-26.61
-31.48
-36.42
-40.65
-43.17
-43.06
-39.77
-33.42
-24.77
-15.01
-5.44
2.95
9.63
14.53
17.90
20.05
21.27
21.74
21.56
20.86
19.84
18.80
18.07
17.94
18.51
19.72
21.27
22.77
23.86
24.29
24.01
23.09
21.74
20.14
18.44
16.66
14.79
12.68
10.24
7.36
4.08
0.52
-3.12
-6.64
-9.92
-12.95
-15.81
-18.64
-21.60
-24.88
-28.53
-32.44
-36.21
-39.15
-40.41
-39.27
-35.37
-28.94
-20.82
-12.18
-4.14
2.53
7.59
11.22
13.79
15.59
16.75
17.26
17.08
16.36
15.38
14.49
13.93
13.78
13.89
14.09
14.29
14.53
14.90
15.43
16.00
16.31
15.97
14.68
12.30
8.96
5.02
0.95
-2.76
-5.85
-8.32
-10.42
-12.56
-15.10
-18.27
-22.05
-26.19
-30.20
-33.41
-35.05
-34.45
-31.26
-25.60
-18.14
-9.90
-1.96
4.86
10.20
14.06
16.65
18.15
18.64
18.21
17.00
15.31
13.60
12.28
11.66
11.81
12.59
13.69
14.77
15.59
16.03
16.12
15.99
15.70
15.23
14.42
13.04
10.92
8.02
4.52
0.75
-2.90
-6.16
-8.91
-11.21
-13.25
-15.31
-17.71
-20.74
-24.54
-28.98
-33.48
-37.12
-38.87
-37.94
-34.07
-27.65
-19.61
-11.04
-2.93
4.09
9.69
13.77
16.37
17.62
17.81
17.29
16.43
15.54
14.79
14.26
14.00
14.07
14.50
15.24
16.18
17.14
17.98
18.60
18.91
18.81
18.18
16.91
15.00
12.61
9.97
7.28
4.58
1.79
-1.19
-4.39
-7.67
-10.79
-13.58
-16.01
-18.22
-20.49
-23.10
-26.29
-30.17
-34.58
-39.04
-42.72
-44.65
-43.99
-40.34
-34.00
-25.80
-16.92
-8.43
-1.05
4.99
9.77
13.51
16.32
18.19
19.05
18.93
18.09
16.97
16.08
15.77
16.12
16.94
17.91
18.77
19.48
20.18
20.99
21.94
22.74
22.97
22.25
20.46
17.81
14.72
11.66
8.91
6.54
4.35
2.07
-0.52
-3.48
-6.67
-9.82
-12.70
-15.20
-17.35
-19.37
-21.53
-24.12
-27.34
-31.25
-35.62
-39.88
-43.18
-44.53
-43.16
-38.78
-31.83
-23.25
-14.30
-6.04
0.92
6.42
10.65
13.79
15.93
17.03
17.06
16.15
14.65
13.09
12.01
11.76
12.40
13.75
15.40
16.95
18.09
18.66
18.71
18.36
17.71
16.82
15.61
13.96
11.73
8.92
5.66
2.20
-1.19
-4.36
-7.28
-10.08
-12.91
-15.87
-19.00
-22.31
-25.80
-29.41
-32.98
-36.06
-37.96
-37.90
-35.33
-30.24
-23.20
-15.25
-7.47
-0.68
4.78
9.01
12.23
14.61
16.13
16.65
16.17
14.89
13.27
11.90
11.21
11.35
12.13
13.14
13.99
14.49
14.71
14.86
15.13
15.48
15.66
15.28
13.97
11.59
8.28
4.42
0.48
-3.17
-6.30
-8.98
-11.38
-13.79
-16.47
-19.59
-23.24
-27.35
-31.65
-35.59
-38.38
-39.15
-37.21
-32.40
-25.19
-16.59
-7.82
0.12
6.68
11.75
15.54
18.27
20.05
20.85
20.65
19.58
17.96
16.24
14.89
14.20
14.31
15.12
16.40
17.89
19.27
20.30
20.76
20.53
19.61
18.12
16.23
14.11
11.84
9.37
6.59
3.39
-0.17
-3.88
-7.46
-10.67
-13.47
-16.08
-18.82
-22.02
-25.89
-30.42
-35.31
-40.01
-43.74
-45.63
-44.94
-41.24
-34.66
-25.88
-15.98
-6.17
2.54
9.54
14.63
17.92
19.66
20.17
19.78
18.85
17.74
16.79
16.30
16.42
17.17
18.42
19.96
21.57
23.04
24.20
24.93
25.14
24.77
23.80
22.21
20.09
17.57
14.82
12.02
9.26
6.56
3.81
0.90
-2.25
-5.62
-9.07
-12.44
-15.58
-18.50
-21.34
-24.37
-27.91
-32.16
-37.05
-42.09
-46.41
-48.89
-48.55
-44.87
-38.09
-29.11
-19.22
-9.68
-1.35
5.48
10.91
15.22
18.57
20.95
22.21
22.33
21.50
20.19
18.95
18.27
18.34
19.06
20.11
21.13
21.88
22.29
22.42
22.34
22.07
21.55
20.62
19.12
16.95
14.12
10.72
6.95
3.05
-0.69
-4.10
-7.11
-9.80
-12.41
-15.25
-18.63
-22.79
-27.69
-32.97
-37.87
-41.37
-42.45
-40.45
-35.34
-27.75
-18.78
-9.61
-1.18
6.00
11.77
16.16
19.21
20.93
21.39
20.78
19.45
17.83
16.37
15.41
15.13
15.52
16.41
17.53
18.58
19.40
19.94
20.27
20.48
20.52
20.16
19.12
17.16
14.26
10.66
6.74
2.88
-0.70
-3.97
-7.11
-10.31
-13.74
-17.44
-21.40
-25.53
-29.59
-33.20
-35.76
-36.56
-34.96
-30.69
-24.01
-15.67
-6.71
1.87
9.32
15.25
19.58
22.37
23.73
23.84
22.95
21.40
19.60
17.92
16.70
16.08
16.11
16.66
17.49
18.34
18.99
19.34
19.41
19.28
18.95
18.25
16.93
14.75
11.71
8.05
4.21
0.59
-2.55
-5.28
-7.86
-10.65
-13.96
-17.95
-22.58
-27.61
-32.54
-36.62
-39.01
-38.93
-35.94
-30.19
-22.33
-13.42
-4.56
3.35
9.84
14.76
18.27
20.60
21.94
22.43
22.23
21.49
20.46
19.42
18.63
18.29
18.42
18.96
19.72
20.50
21.14
21.48
21.43
20.97
20.09
18.81
17.18
15.23
13.02
10.56
7.86
4.96
1.89
-1.31
-4.53
-7.67
-10.61
-13.27
-15.65
-17.89
-20.22
-22.87
-26.02
-29.69
-33.62
-37.25
-39.88
-40.70
-39.18
-35.15
-28.95
-21.33
-13.20
-5.39
1.55
7.39
12.10
15.72
18.25
19.66
20.00
19.48
18.50
17.49
16.81
16.64
16.97
17.68
18.58
19.50
20.31
20.89
21.17
21.05
20.54
19.66
18.48
17.08
15.47
13.60
11.42
8.89
6.06
3.02
-0.06
-3.07
-5.97
-8.82
-11.69
-14.64
-17.63
-20.58
-23.48
-26.41
-29.50
-32.76
-35.86
-38.07
-38.53
-36.54
-31.91
-25.16
-17.28
-9.37
-2.31
3.49
7.99
11.34
13.63
14.91
15.16
14.46
13.06
11.39
9.95
9.15
9.19
9.95
11.02
11.96
12.44
12.38
11.96
11.41
10.87
10.25
9.37
7.99
6.03
3.61
0.98
-1.61
-4.00
-6.18
-8.29
-10.50
-13.01
-15.93
-19.23
-22.75
-26.15
-28.98
-30.72
-30.89
-29.21
-25.60
-20.34
-14.01
-7.34
-1.06
4.32
8.60
11.84
14.18
15.69
16.34
16.04
14.82
12.98
11.01
9.50
8.89
9.27
10.33
11.59
12.61
13.14
13.23
13.06
12.79
12.38
11.67
10.41
8.49
5.98
3.13
0.30
-2.26
-4.48
-6.49
-8.53
-10.84
-13.57
-16.75
-20.32
-24.10
-27.80
-31.05
-33.34
-34.17
-33.09
-29.94
-24.87
-18.43
-11.40
-4.59
1.36
6.11
9.61
12.04
13.61
14.48
14.68
14.27
13.35
12.15
11.02
10.32
10.27
10.85
11.84
12.95
13.94
14.67
15.15
15.38
15.33
14.86
13.90
12.40
10.43
8.15
5.70
3.19
0.66
-1.84
-4.30
-6.69
-9.00
-11.31
-13.76
-16.48
-19.51
-22.80
-26.25
-29.76
-33.21
-36.42
-39.06
-40.59
-40.40
-37.98
-33.26
-26.66
-19.03
-11.39
-4.59
0.89
5.00
7.92
9.87
11.02
11.40
11.09
10.20
9.06
8.02
7.46
7.62
8.49
9.83
11.25
12.38
13.03
13.23
13.17
12.98
12.59
11.75
10.18
7.80
4.78
1.57
-1.39
-3.81
-5.76
-7.56
-9.63
-12.31
-15.72
-19.75
-24.06
-28.12
-31.29
-32.91
-32.46
-29.73
-24.88
-18.45
-11.20
-3.94
2.67
8.20
12.45
15.43
17.22
17.92
17.72
16.85
15.61
14.34
13.31
12.65
12.35
12.30
12.38
12.55
12.79
13.13
13.51
13.79
13.77
13.24
12.08
10.28
7.94
5.21
2.25
-0.83
-3.87
-6.77
-9.43
-11.86
-14.23
-16.86
-20.04
-23.91
-28.23
-32.37
-35.50
-36.82
-35.91
-32.77
-27.84
-21.74
-15.06
-8.30
-1.85
3.92
8.67
12.12
14.18
15.01
14.91
14.28
13.42
12.54
11.72
11.02
10.56
10.46
10.87
11.79
13.08
14.45
15.54
16.00
15.61
14.31
12.27
9.75
7.04
4.33
1.66
-1.03
-3.77
-6.60
-9.53
-12.69
-16.25
-20.37
-24.95
-29.47
-33.06
-34.71
-33.66
-29.73
-23.36
-15.51
-7.27
0.38
6.78
11.65
15.05
17.15
18.20
18.39
17.86
16.75
15.29
13.77
12.54
11.84
11.70
11.98
12.39
12.75
13.01
13.24
13.43
13.42
12.87
11.49
9.17
6.11
2.74
-0.51
-3.42
-6.05
-8.76
-11.94
-15.90
-20.60
-25.72
-30.61
-34.41
-36.28
-35.52
-31.88
-25.64
-17.64
-8.98
-0.76
6.29
11.85
16.00
18.99
20.97
21.98
22.01
21.12
19.59
17.92
16.64
16.07
16.26
16.93
17.72
18.34
18.72
18.98
19.24
19.49
19.48
18.83
17.21
14.46
10.80
6.66
2.60
-0.98
-3.96
-6.53
-9.08
-12.08
-15.81
-20.34
-25.42
-30.53
-34.95
-37.90
-38.64
-36.69
-31.95
-24.84
-16.20
-7.13
1.32
8.37
13.70
17.36
19.63
20.84
21.27
21.15
20.67
20.02
19.40
18.96
18.76
18.80
18.97
19.17
19.29
19.30
19.21
19.01
18.66
18.01
16.86
15.02
12.43
9.24
5.71
2.21
-0.95
-3.69
-6.18
-8.76
-11.87
-15.82
-20.65
-26.01
-31.12
-34.95
-36.48
-35.03
-30.54
-23.61
-15.30
-6.77
1.03
7.59
12.80
16.75
19.59
21.35
21.98
21.53
20.23
18.49
16.90
15.93
15.78
16.32
17.18
17.91
18.26
18.20
17.89
17.55
17.25
16.84
16.05
14.59
12.36
9.49
6.27
3.05
0.07
-2.62
-5.15
-7.74
-10.66
-14.14
-18.21
-22.72
-27.27
-31.16
-33.62
-33.95
-31.72
-27.00
-20.31
-12.47
-4.44
3.00
9.30
14.24
17.77
19.95
20.87
20.69
19.58
17.83
15.80
13.86
12.34
11.46
11.27
11.63
12.34
13.14
13.81
14.15
14.04
13.40
12.23
10.58
8.57
6.34
4.05
1.80
-0.42
-2.74
-5.41
-8.72
-12.86
-17.69
-22.71
-27.03
-29.67
-29.79
-27.09
-21.84
-14.87
-7.17
0.36
7.07
12.70
17.16
20.44
22.54
23.41
23.14
21.91
20.02
17.82
15.66
13.79
12.39
11.57
11.32
11.53
11.99
12.41
12.49
12.07
11.09
9.56
7.57
5.15
2.37
-0.67
-3.83
-7.00
-10.12
-13.39
-17.04
-21.25
-25.90
-30.44
-33.97
-35.49
-34.32
-30.30
-23.93
-16.15
-7.99
-0.33
6.31
11.67
15.67
18.27
19.49
19.43
18.36
16.70
14.87
13.22
11.88
10.84
9.98
9.28
8.77
8.56
8.72
9.14
9.63
9.86
9.54
8.50
6.67
4.13
1.03
-2.37
-5.77
-8.97
-11.91
-14.74
-17.76
-21.20
-25.01
-28.73
-31.52
-32.43
-30.80
-26.47
-19.92
-12.08
-3.99
3.43
9.62
14.35
17.61
19.52
20.20
19.81
18.55
16.71
14.65
12.71
11.15
10.07
9.41
9.06
8.95
9.05
9.33
9.67
9.88
9.68
8.85
7.33
5.20
2.65
-0.12
-2.94
-5.73
-8.51
-11.36
-14.42
-17.85
-21.74
-25.91
-29.90
-32.88
-34.00
-32.59
-28.52
-22.21
-14.56
-6.59
0.83
7.13
12.08
15.68
18.03
19.23
19.31
18.36
16.59
14.35
12.12
10.29
9.12
8.59
8.56
8.78
9.11
9.48
9.88
10.26
10.46
10.23
9.34
7.65
5.23
2.31
-0.80
-3.81
-6.58
-9.12
-11.61
-14.32
-17.46
-21.06
-24.94
-28.61
-31.43
-32.68
-31.78
-28.49
-23.01
-15.99
-8.38
-1.18
4.86
9.35
12.25
13.80
14.24
13.84
12.77
11.24
9.44
7.60
5.94
4.64
3.83
3.57
3.86
4.64
5.71
6.80
7.58
7.77
7.24
6.04
4.35
2.39
0.35
-1.73
-3.93
-6.40
-9.29
-12.66
-16.48
-20.56
-24.53
-27.85
-29.90
-30.10
-28.14
-24.03
-18.22
-11.43
-4.48
1.95
7.37
11.55
14.43
16.04
16.52
16.06
14.91
13.41
11.85
10.45
9.31
8.44
7.79
7.34
7.08
7.05
7.25
7.57
7.82
7.74
7.13
5.89
4.10
1.92
-0.44
-2.87
-5.33
-7.86
-10.54
-13.44
-16.61
-20.07
-23.65
-27.04
-29.66
-30.84
-29.96
-26.71
-21.27
-14.31
-6.75
0.45
6.55
11.19
14.30
16.01
16.54
16.13
15.01
13.38
11.53
9.75
8.29
7.32
6.88
6.85
7.05
7.33
7.61
7.88
8.14
8.30
8.17
7.54
6.19
4.07
1.31
-1.78
-4.89
-7.74
-10.22
-12.39
-14.46
-16.74
-19.57
-23.09
-27.11
-31.07
-34.10
-35.30
-34.06
-30.27
-24.35
-17.13
-9.54
-2.39
3.76
8.61
12.05
14.10
14.86
14.57
13.54
12.13
10.67
9.36
8.31
7.53
7.03
6.83
6.95
7.37
8.05
8.83
9.51
9.83
9.56
8.59
6.93
4.74
2.25
-0.32
-2.85
-5.33
-7.80
-10.33
-12.96
-15.75
-18.78
-22.12
-25.73
-29.30
-32.25
-33.78
-33.22
-30.23
-25.01
-18.22
-10.74
-3.44
3.08
8.43
12.45
15.09
16.36
16.37
15.34
13.60
11.57
9.65
8.19
7.39
7.32
7.87
8.82
9.85
10.72
11.31
11.64
11.84
11.97
11.97
11.66
10.81
9.24
6.99
4.24
1.25
-1.74
-4.61
-7.37
-10.10
-12.90
-15.81
-18.88
-22.13
-25.50
-28.79
-31.55
-33.17
-33.00
-30.64
-26.08
-19.86
-12.83
-5.90
0.26
5.34
9.33
12.29
14.26
15.17
14.95
13.74
11.89
9.96
8.47
7.76
7.84
8.48
9.34
10.18
10.95
11.66
12.38
13.01
13.35
13.13
12.13
10.31
7.79
4.87
1.86
-0.99
-3.57
-5.96
-8.29
-10.74
-13.46
-16.52
-19.93
-23.58
-27.19
-30.34
-32.43
-32.82
-31.06
-27.02
-21.05
-13.86
-6.39
0.49
6.18
10.40
13.13
14.51
14.75
14.05
12.70
11.03
9.38
8.04
7.21
6.93
7.09
7.56
8.18
8.90
9.68
10.52
11.30
11.79
11.67
10.68
8.74
6.02
2.89
-0.20
-2.98
-5.44
-7.82
-10.47
-13.70
-17.62
-22.07
-26.65
-30.75
-33.64
-34.59
-33.09
-29.05
-22.81
-15.19
-7.17
0.31
6.62
11.44
14.80
16.82
17.70
17.59
16.66
15.13
13.25
11.38
9.82
8.76
8.29
8.33
8.75
9.40
10.18
11.01
11.77
12.25
12.20
11.40
9.75
7.32
4.35
1.13
-2.08
-5.07
-7.82
-10.47
-13.31
-16.72
-20.92
-25.82
-30.86
-35.04
-37.23
-36.55
-32.72
-26.16
-17.82
-8.87
-0.35
7.02
12.90
17.21
20.05
21.60
22.06
21.67
20.70
19.43
18.12
17.01
16.27
16.02
16.24
16.78
17.44
18.04
18.50
18.85
19.14
19.34
19.28
18.68
17.26
14.87
11.59
7.72
3.66
-0.23
-3.74
-6.84
-9.65
-12.34
-15.09
-18.03
-21.33
-25.11
-29.44
-34.19
-38.83
-42.49
-44.10
-42.77
-38.13
-30.55
-21.09
-11.04
-1.61
6.43
12.77
17.47
20.68
22.55
23.25
23.00
22.15
21.12
20.30
20.00
20.29
21.11
22.32
23.72
25.16
26.53
27.73
28.70
29.34
29.56
29.29
28.48
27.12
25.28
23.04
20.55
17.96
15.36
12.84
10.41
8.00
5.55
2.95
0.12
-2.97
-6.24
-9.55
-12.69
-15.50
-17.96
-20.25
-22.73
-25.82
-29.81
-34.66
-39.88
-44.53
-47.45
-47.61
-44.44
-38.01
-29.12
-18.97
-8.84
0.26
7.77
13.56
17.70
20.35
21.61
21.67
20.82
19.55
18.42
17.88
18.16
19.14
20.55
22.04
23.34
24.38
25.18
25.78
26.16
26.19
25.68
24.54
22.75
20.49
18.01
15.54
13.16
10.77
8.16
5.11
1.59
-2.22
-5.96
-9.30
-12.07
-14.36
-16.53
-19.02
-22.21
-26.24
-30.86
-35.45
-39.11
-40.87
-40.02
-36.28
-29.97
-21.87
-13.02
-4.40
3.24
9.51
14.26
17.53
19.43
20.14
19.87
18.92
17.58
16.17
14.99
14.27
14.21
14.81
15.95
17.36
18.70
19.68
20.13
19.99
19.30
18.10
16.43
14.30
11.73
8.79
5.56
2.18
-1.22
-4.49
-7.56
-10.41
-13.17
-16.08
-19.39
-23.28
-27.65
-32.03
-35.65
-37.62
-37.18
-34.04
-28.40
-20.95
-12.62
-4.33
3.20
9.57
14.63
18.39
20.89
22.19
22.36
21.56
20.04
18.16
16.39
15.18
14.83
15.38
16.57
17.96
19.08
19.66
19.65
19.25
18.68
18.04
17.20
15.88
13.79
10.84
7.20
3.26
-0.55
-3.93
-6.85
-9.51
-12.22
-15.27
-18.83
-22.97
-27.60
-32.46
-37.06
-40.60
-42.20
-41.11
-37.05
-30.32
-21.80
-12.68
-4.04
3.40
9.33
13.81
17.06
19.25
20.44
20.65
19.94
18.54
16.84
15.33
14.45
14.45
15.31
16.77
18.40
19.83
20.79
21.18
21.02
20.39
19.41
18.17
16.70
14.97
12.84
10.21
7.00
3.30
-0.63
-4.44
-7.86
-10.74
-13.16
-15.37
-17.67
-20.34
-23.60
-27.53
-32.05
-36.74
-40.88
-43.45
-43.47
-40.31
-34.02
-25.39
-15.72
-6.37
1.64
7.83
12.25
15.18
16.91
17.62
17.43
16.56
15.35
14.27
13.74
14.00
14.96
16.33
17.71
18.80
19.45
19.73
19.79
19.77
19.66
19.30
18.39
16.69
14.07
10.68
6.83
2.97
-0.56
-3.62
-6.34
-8.97
-11.83
-15.17
-19.09
-23.52
-28.17
-32.54
-35.92
-37.55
-36.81
-33.45
-27.75
-20.43
-12.42
-4.66
2.24
7.93
12.30
15.35
17.13
17.69
17.23
16.06
14.62
13.33
12.54
12.39
12.83
13.63
14.53
15.29
15.78
15.98
15.98
15.85
15.58
15.03
14.04
12.44
10.14
7.21
3.79
0.11
-3.58
-7.10
-10.31
-13.21
-15.92
-18.67
-21.71
-25.20
-29.04
-32.80
-35.77
-37.15
-36.25
-32.84
-27.15
-19.91
-12.02
-4.36
2.43
8.01
12.28
15.28
17.09
17.83
17.70
16.98
15.95
14.89
14.01
13.49
13.40
13.75
14.40
15.14
15.73
16.03
16.04
15.85
15.52
15.00
14.04
12.37
9.86
6.65
3.08
-0.43
-3.62
-6.43
-9.02
-11.63
-14.47
-17.72
-21.48
-25.77
-30.39
-34.81
-38.20
-39.56
-38.12
-33.65
-26.63
-18.15
-9.50
-1.78
4.46
9.20
12.80
15.60
17.76
19.19
19.71
19.25
18.05
16.54
15.28
14.72
14.99
15.93
17.22
18.47
19.44
20.00
20.10
19.73
18.88
17.58
15.92
14.03
12.04
10.00
7.82
5.36
2.52
-0.70
-4.13
-7.51
-10.60
-13.28
-15.60
-17.77
-20.10
-22.92
-26.46
-30.74
-35.47
-39.99
-43.33
-44.48
-42.67
-37.70
-30.07
-20.83
-11.33
-2.74
4.18
9.19
12.54
14.60
15.76
16.28
16.33
16.08
15.75
15.57
15.67
16.09
16.73
17.46
18.21
18.97
19.75
20.50
21.09
21.29
20.92
19.92
18.39
16.50
14.39
12.12
9.64
6.85
3.74
0.39
-2.98
-6.12
-8.81
-11.00
-12.82
-14.60
-16.73
-19.53
-23.16
-27.48
-32.06
-36.21
-39.03
-39.69
-37.62
-32.74
-25.53
-16.97
-8.24
-0.37
6.02
10.75
14.02
16.15
17.44
18.11
18.29
18.17
17.94
17.78
17.82
18.07
18.51
19.11
19.86
20.77
21.75
22.66
23.24
23.31
22.76
21.57
19.87
17.79
15.41
12.80
9.96
6.89
3.66
0.38
-2.84
-5.92
-8.82
-11.58
-14.26
-16.91
-19.60
-22.41
-25.42
-28.68
-32.09
-35.31
-37.75
-38.66
-37.40
-33.70
-27.80
-20.46
-12.65
-5.27
1.07
6.16
10.08
12.96
14.91
15.90
15.87
14.95
13.43
11.84
10.73
10.50
11.24
12.69
14.41
15.88
16.81
17.12
16.94
16.51
15.97
15.32
14.42
13.07
11.09
8.45
5.29
1.86
-1.55
-4.75
-7.65
-10.29
-12.80
-15.31
-17.97
-20.91
-24.20
-27.74
-31.18
-33.89
-35.05
-33.95
-30.26
-24.23
-16.65
-8.58
-1.04
5.30
10.17
13.66
15.95
17.23
17.61
17.15
16.02
14.47
12.91
11.74
11.28
11.64
12.63
13.92
15.09
15.83
16.07
15.94
15.65
15.33
14.88
14.08
12.65
10.44
7.54
4.25
0.96
-2.07
-4.73
-7.15
-9.55
-12.17
-15.18
-18.62
-22.44
-26.48
-30.47
-33.93
-36.23
-36.74
-34.92
-30.66
-24.29
-16.59
-8.55
-1.10
5.13
9.86
13.14
15.21
16.33
16.73
16.60
16.07
15.34
14.60
14.03
13.82
14.04
14.67
15.62
16.70
17.74
18.57
19.06
19.15
18.75
17.84
16.41
14.51
12.29
9.88
7.40
4.89
2.31
-0.46
-3.49
-6.75
-10.10
-13.26
-15.96
-18.06
-19.66
-21.15
-23.08
-25.97
-30.04
-35.01
-40.03
-43.89
-45.37
-43.67
-38.66
-30.97
-21.77
-12.41
-4.00
2.78
7.80
11.27
13.56
15.03
15.87
16.17
16.00
15.50
14.91
14.50
14.51
15.02
15.93
17.00
17.99
18.73
19.16
19.34
19.34
19.17
18.70
17.75
16.17
13.94
11.20
8.22
5.25
2.45
-0.13
-2.53
-4.83
-7.14
-9.52
-12.03
-14.75
-17.78
-21.22
-25.11
-29.39
-33.77
-37.73
-40.54
-41.39
-39.67
-35.17
-28.29
-19.92
-11.19
-3.18
3.46
8.52
12.15
14.64
16.26
17.14
17.40
17.12
16.48
15.74
15.16
14.93
15.11
15.63
16.33
17.08
17.77
18.35
18.79
19.03
18.96
18.45
17.39
15.77
13.63
11.09
8.30
5.33
2.27
-0.86
-4.05
-7.28
-10.57
-13.89
-17.22
-20.54
-23.88
-27.33
-30.99
-34.83
-38.53
-41.43
-42.69
-41.56
-37.72
-31.44
-23.55
-15.09
-7.04
-0.02
5.70
10.12
13.29
15.29
16.19
16.16
15.49
14.55
13.69
13.12
12.85
12.77
12.73
12.66
12.62
12.71
12.99
13.42
13.82
13.89
13.35
12.00
9.82
6.94
3.64
0.22
-3.02
-5.89
-8.40
-10.78
-13.39
-16.61
-20.68
-25.50
-30.57
-35.03
-37.88
-38.25
-35.75
-30.59
-23.48
-15.46
-7.53
-0.40
5.53
10.17
13.52
15.63
16.55
16.39
15.41
13.96
12.44
11.20
10.43
10.15
10.23
10.53
10.94
11.44
12.03
12.71
13.38
13.80
13.68
12.72
10.79
7.97
4.53
0.91
-2.46
-5.37
-7.83
-10.17
-12.89
-16.45
-21.08
-26.53
-32.11
-36.72
-39.25
-38.85
-35.28
-28.96
-20.86
-12.14
-3.87
3.26
9.00
13.38
16.61
18.83
20.10
20.43
19.90
18.72
17.26
15.95
15.15
15.06
15.65
16.71
17.97
19.15
20.05
20.60
20.79
20.60
19.99
18.83
17.03
14.52
11.33
7.63
3.67
-0.26
-3.99
-7.44
-10.68
-13.82
-16.99
-20.27
-23.74
-27.49
-31.58
-35.92
-40.10
-43.39
-44.89
-43.85
-39.98
-33.62
-25.58
-16.91
-8.50
-0.92
5.61
11.03
15.31
18.36
20.09
20.57
20.08
19.07
18.07
17.52
17.62
18.32
19.34
20.34
21.01
21.29
21.23
21.02
20.74
20.34
19.63
18.32
16.23
13.32
9.78
5.91
2.07
-1.49
-4.64
-7.38
-9.85
-12.35
-15.21
-18.76
-23.13
-28.13
-33.17
-37.34
-39.62
-39.25
-35.94
-29.98
-22.21
-13.66
-5.30
2.19
8.50
13.60
17.56
20.49
22.39
23.30
23.28
22.56
21.48
20.44
19.80
19.78
20.39
21.39
22.46
23.27
23.63
23.55
23.15
22.60
21.95
21.08
19.74
17.70
14.85
11.30
7.36
3.41
-0.24
-3.46
-6.34
-9.05
-11.85
-14.91
-18.40
-22.40
-26.89
-31.63
-36.08
-39.40
-40.65
-39.11
-34.59
-27.59
-19.13
-10.43
-2.53
4.01
9.08
12.87
15.63
17.57
18.76
19.26
19.17
18.64
17.93
17.27
16.83
16.68
16.80
17.11
17.49
17.89
18.20
18.32
18.10
17.34
15.88
13.64
10.71
7.34
3.85
0.52
-2.54
-5.41
-8.37
-11.75
-15.79
-20.50
-25.49
-30.06
-33.30
-34.37
-32.76
-28.49
-22.08
-14.43
-6.53
0.77
6.95
11.79
15.33
17.74
19.20
19.81
19.67
18.91
17.72
16.38
15.21
14.51
14.36
14.68
15.20
15.69
15.97
16.02
15.90
15.55
14.82
13.45
11.20
8.08
4.33
0.41
-3.22
-6.31
-8.93
-11.41
-14.18
-17.54
-21.57
-26.00
-30.27
-33.60
-35.22
-34.51
-31.23
-25.64
-18.42
-10.55
-2.96
3.70
9.13
13.33
16.44
18.57
19.77
20.10
19.70
18.83
17.84
17.11
16.88
17.28
18.21
19.43
20.63
21.54
21.99
21.94
21.43
20.51
19.23
17.52
15.39
12.87
10.09
7.19
4.29
1.38
-1.56
-4.53
-7.45
-10.19
-12.68
-15.02
-17.52
-20.56
-24.41
-29.02
-33.90
-38.27
-41.24
-42.05
-40.33
-36.11
-29.84
-22.25
-14.21
-6.59
-0.03
5.16
8.99
11.74
13.73
15.18
16.12
16.52
16.41
16.01
15.69
15.76
16.38
17.43
18.60
19.59
20.24
20.58
20.75
20.76
20.53
19.83
18.43
16.30
13.56
10.50
7.39
4.40
1.51
-1.36
-4.30
-7.34
-10.36
-13.20
-15.72
-17.91
-19.88
-21.92
-24.34
-27.38
-31.01
-34.82
-38.10
-39.96
-39.64
-36.77
-31.48
-24.41
-16.49
-8.69
-1.70
4.10
8.64
12.06
14.56
16.29
17.36
17.91
18.11
18.22
18.50
19.14
20.17
21.44
22.72
23.78
24.50
24.81
24.74
24.28
23.49
22.42
21.17
19.81
18.37
16.79
14.92
12.64
9.90
6.78
3.47
0.19
-2.93
-5.85
-8.59
-11.23
-13.83
-16.47
-19.30
-22.54
-26.37
-30.77
-35.32
-39.28
-41.69
-41.70
-38.93
-33.57
-26.40
-18.44
-10.66
-3.74
2.05
6.69
10.27
12.86
14.46
15.07
14.82
14.00
13.04
12.37
12.28
12.78
13.68
14.68
15.51
16.08
16.41
16.60
16.63
16.37
15.60
14.13
11.87
8.99
5.79
2.66
-0.15
-2.57
-4.75
-6.98
-9.56
-12.66
-16.31
-20.36
-24.52
-28.32
-31.20
-32.51
-31.78
-28.85
-24.04
-18.01
-11.65
-5.68
-0.52
3.76
7.24
10.03
12.06
13.20
13.33
12.53
11.09
9.46
8.10
7.30
7.16
7.55
8.23
8.99
9.72
10.37
10.91
11.24
11.14
10.39
8.89
6.74
4.23
1.73
-0.55
-2.62
-4.68
-7.00
-9.80
-13.13
-16.90
-20.90
-24.84
-28.32
-30.87
-31.99
-31.21
-28.36
-23.60
-17.51
-10.90
-4.57
0.88
5.19
8.38
10.57
11.90
12.37
11.97
10.76
8.96
7.02
5.38
4.40
4.13
4.39
4.90
5.41
5.85
6.27
6.67
6.99
6.97
6.33
4.86
2.61
-0.13
-2.97
-5.58
-7.89
-10.09
-12.52
-15.55
-19.31
-23.56
-27.71
-30.90
-32.29
-31.27
-27.69
-21.87
-14.56
-6.67
0.95
7.67
13.15
17.30
20.15
21.78
22.22
21.58
20.07
18.06
16.03
14.44
13.54
13.31
13.54
13.94
14.32
14.65
14.98
15.29
15.45
15.17
14.19
12.36
9.75
6.67
3.47
0.40
-2.40
-5.00
-7.53
-10.13
-12.92
-16.04
-19.55
-23.42
-27.36
-30.81
-32.95
-32.97
-30.36
-25.18
-18.11
-10.16
-2.44
4.30
9.75
13.97
17.15
19.43
20.79
21.19
20.68
19.53
18.16
16.97
16.24
15.98
16.03
16.19
16.41
16.73
17.24
17.93
18.60
18.94
18.63
17.56
15.83
13.67
11.29
8.80
6.20
3.41
0.42
-2.65
-5.63
-8.39
-10.87
-13.11
-15.20
-17.22
-19.20
-21.22
-23.46
-26.15
-29.46
-33.27
-37.06
-39.91
-40.77
-38.86
-33.97
-26.60
-17.79
-8.76
-0.53
6.28
11.54
15.40
18.10
19.80
20.58
20.50
19.66
18.33
16.85
15.57
14.74
14.39
14.44
14.69
14.96
15.13
15.20
15.23
15.28
15.32
15.21
14.68
13.49
11.50
8.76
5.53
2.19
-0.94
-3.67
-6.01
-8.08
-10.01
-11.96
-14.09
-16.55
-19.52
-23.06
-26.89
-30.44
-32.86
-33.36
-31.46
-27.18
-21.04
-13.82
-6.34
0.79
7.15
12.47
16.54
19.18
20.33
20.09
18.78
16.87
14.89
13.25
12.18
11.71
11.70
11.94
12.24
12.47
12.61
12.68
12.77
12.87
12.92
12.74
12.10
10.78
8.72
6.02
2.93
-0.22
-3.17
-5.78
-8.08
-10.23
-12.48
-15.09
-18.20
-21.77
-25.43
-28.57
-30.34
-30.03
-27.29
-22.30
-15.79
-8.69
-1.88
4.08
8.97
12.82
15.66
17.45
18.17
17.81
16.60
14.89
13.13
11.65
10.64
10.10
9.93
10.03
10.31
10.73
11.27
11.85
12.37
12.70
12.69
12.24
11.31
9.95
8.27
6.35
4.26
1.98
-0.48
-3.11
-5.79
-8.42
-10.89
-13.14
-15.22
-17.27
-19.48
-22.04
-24.97
-28.01
-30.61
-32.04
-31.66
-29.14
-24.64
-18.75
-12.29
-6.07
-0.72
3.41
6.19
7.67
7.97
7.27
5.79
3.76
1.42
-0.99
-3.19
-4.92
-6.02
-6.41
-6.22
-5.63
-4.80
-3.76
-2.39
-0.54
1.87
4.67
7.50
9.93
11.63
12.53
12.81
12.80
12.80
12.92
13.06
13.00
12.47
11.32
9.48
6.91
3.61
-0.31
-4.53
-8.49
-11.47
-12.79
-12.09
-9.49
-5.62
-1.28
2.73
5.96
8.31
9.94
11.05
11.71
11.85
11.30
9.89
7.66
4.85
1.95
-0.50
-2.06
-2.51
-1.93
-0.61
1.00
2.48
3.47
3.75
3.25
2.03
0.27
-1.81
-3.97
-6.01
-7.83
-9.36
-10.62
-11.67
-12.58
-13.50
-14.59
-16.01
-17.86
-20.06
-22.34
-24.22
-25.13
-24.61
-22.42
-18.71
-13.91
-8.63
-3.52
0.91
4.36
6.77
8.20
8.82
8.79
8.30
7.44
6.27
4.80
3.12
1.35
-0.22
-1.32
-1.78
-1.61
-1.03
-0.31
0.31
0.66
0.70
0.43
-0.15
-0.99
-2.03
-3.17
-4.30
-5.36
-6.40
-7.60
-9.14
-11.17
-13.66
-16.40
-18.96
-20.82
-21.43
-20.40
-17.59
-13.25
-7.98
-2.56
2.29
6.08
8.65
10.14
10.78
10.80
10.31
9.31
7.86
6.06
4.16
2.43
1.07
0.17
-0.31
-0.45
-0.34
-0.03
0.41
0.87
1.14
1.02
0.35
-0.91
-2.60
-4.50
-6.35
-8.04
-9.57
-11.10
-12.82
-14.86
-17.23
-19.73
-22.02
-23.60
-24.04
-22.94
-20.18
-15.92
-10.57
-4.80
0.72
5.42
8.97
11.30
12.47
12.69
