1611118562.00
64.000000
-0.00
-0.00
-0.00
-0.00
-0.00
-0.00
-0.00
-0.00
-0.00
-0.00
0.00
0.01
0.01
-0.00
-0.03
-0.05
-0.05
0.00
0.13
0.36
0.66
1.01
1.37
1.72
2.06
2.40
2.79
3.24
3.80
4.42
5.06
5.66
6.20
6.68
7.15
7.68
8.31
9.14
10.09
11.04
11.88
12.56
13.14
13.76
14.65
15.96
17.91
20.32
22.90
25.38
27.58
29.57
31.68
34.32
37.81
42.54
48.15
54.10
59.83
64.97
69.58
74.14
79.34
85.71
93.76
103.00
112.62
121.73
129.77
136.75
143.30
150.75
157.77
166.64
177.95
191.79
206.97
220.57
228.25
225.36
208.53
176.87
132.76
80.05
23.07
-34.94
-92.44
-149.16
-205.23
-260.37
-313.74
-363.87
-409.83
-450.91
-486.50
-515.74
-537.23
-549.22
-549.96
-538.37
-514.21
-478.67
-433.88
-382.45
-327.02
-269.84
-212.63
-156.66
-102.95
-52.37
-5.90
35.58
71.43
101.35
125.50
144.38
158.69
169.15
176.37
180.75
182.57
182.07
179.51
175.23
169.65
163.18
156.15
148.81
141.30
133.69
126.02
118.33
110.69
103.16
95.80
88.68
81.83
75.25
68.95
62.95
57.25
51.86
46.78
42.03
37.59
33.45
29.61
26.07
22.81
19.83
17.11
14.67
12.48
10.54
8.83
7.35
6.07
4.97
4.05
3.27
2.62
2.09
1.65
1.30
1.01
0.79
0.61
0.48
0.37
0.29
0.24
0.20
0.18
0.17
0.17
0.18
0.20
0.23
0.26
0.30
0.34
0.38
0.43
0.47
0.52
0.57
0.62
0.67
0.73
0.79
0.86
0.93
1.02
1.10
1.20
1.31
1.44
1.58
1.74
1.91
2.10
2.32
2.56
2.83
3.12
3.44
3.80
4.18
4.60
5.06
5.56
6.09
6.66
7.28
7.93
8.63
9.38
10.17
11.01
11.89
12.81
13.79
14.83
15.92
17.09
18.31
19.59
20.87
22.13
23.29
24.25
24.90
25.11
24.78
23.78
22.08
19.64
16.52
12.76
8.54
4.03
-0.56
-5.00
-9.09
-12.64
-15.52
-17.66
-19.03
-19.64
-19.58
-18.96
-17.89
-16.48
-14.84
-13.04
-11.18
-9.28
-7.40
-5.57
-3.82
-2.13
-0.45
1.27
3.07
4.97
6.97
9.12
11.28
13.44
15.60
17.80
20.13
22.62
25.31
28.23
31.45
34.73
38.02
41.36
44.87
48.65
52.76
57.19
61.85
66.73
71.34
75.54
79.41
83.17
87.08
91.25
95.60
99.89
103.91
106.86
108.43
108.66
107.78
105.85
102.50
96.57
85.90
72.57
56.75
38.74
19.20
-1.04
-21.18
-40.72
-59.63
-78.17
-96.75
-116.62
-138.85
-164.14
-192.36
-222.01
-249.96
-271.99
-284.01
-283.49
-270.97
-249.35
-222.85
-195.54
-170.08
-147.44
-127.40
-109.37
-93.01
-78.58
-66.27
-55.76
-46.34
-37.13
-27.62
-17.81
-8.26
0.28
7.12
12.20
16.01
19.35
22.89
26.81
30.70
33.83
35.49
35.38
33.79
31.49
29.31
27.81
27.14
27.06
27.18
27.22
27.08
26.77
26.31
25.67
24.83
23.76
22.53
21.27
20.09
19.03
18.06
17.16
16.34
15.63
15.05
14.57
14.12
13.64
13.15
12.76
12.55
12.48
12.38
11.98
11.13
9.84
8.38
7.07
6.16
5.71
5.56
5.50
5.36
5.14
4.94
4.87
4.97
5.19
5.43
5.62
5.82
6.11
6.55
7.13
7.76
8.33
8.80
9.10
9.25
9.19
8.87
8.27
7.44
6.51
5.62
4.89
4.36
4.00
3.76
3.58
3.49
3.53
3.74
4.08
4.51
4.95
5.32
5.56
5.62
5.46
5.14
4.70
4.24
3.81
3.42
3.06
2.73
2.48
2.38
2.48
2.80
3.27
3.75
4.13
4.35
4.41
4.36
4.28
4.22
4.24
4.33
4.46
4.52
4.41
4.04
3.41
2.63
1.90
1.46
1.49
2.08
3.18
4.58
5.96
6.96
7.29
6.76
5.36
3.30
0.94
-1.34
-3.22
-4.52
-5.24
-5.44
-5.23
-4.67
-3.81
-2.73
-1.59
-0.61
0.04
0.28
0.17
-0.12
-0.40
-0.53
-0.49
-0.34
-0.17
-0.02
0.09
0.25
0.53
0.96
1.47
1.91
2.16
2.16
1.98
1.81
1.85
2.14
2.62
3.07
3.28
3.14
2.72
2.19
1.79
1.67
1.92
2.54
3.44
4.54
5.70
6.73
7.42
7.57
7.05
5.85
4.15
2.28
0.58
-0.66
-1.33
-1.50
-1.42
-1.32
-1.41
-1.71
-2.13
-2.49
-2.71
-2.77
-2.80
-2.92
-3.23
-3.66
-4.08
-4.31
-4.23
-3.87
-3.35
-2.83
-2.43
-2.12
-1.83
-1.45
-0.96
-0.40
0.07
0.32
0.26
-0.04
-0.41
-0.65
-0.60
-0.25
0.26
0.74
1.00
0.98
0.77
0.58
0.66
1.18
2.20
3.63
5.27
6.83
7.96
8.39
7.91
6.55
4.48
2.09
-0.20
-2.02
-3.18
-3.63
-3.50
-3.01
-2.34
-1.67
-1.10
-0.71
-0.49
-0.45
-0.49
-0.57
-0.62
-0.63
-0.60
-0.56
-0.51
-0.46
-0.45
-0.53
-0.75
-1.10
-1.51
-1.87
-2.05
-2.00
-1.75
-1.41
-1.13
-1.00
-1.07
-1.29
-1.54
-1.67
-1.57
-1.23
-0.70
-0.14
0.29
0.49
0.44
0.22
-0.07
-0.31
-0.35
-0.03
0.77
2.03
3.55
4.82
5.38
4.86
3.32
1.20
-0.89
-2.44
-3.25
-3.41
-3.20
-2.83
-2.41
-1.92
-1.36
-0.82
-0.43
-0.32
-0.52
-0.92
-1.38
-1.72
-1.86
-1.73
-1.38
-0.88
-0.39
-0.03
0.14
0.16
0.16
0.28
0.58
1.00
1.41
1.64
1.61
1.32
0.88
0.41
0.01
-0.30
-0.58
-0.89
-1.26
-1.64
-1.89
-1.88
-1.59
-1.10
-0.60
-0.32
-0.35
-0.62
-0.93
-1.07
-0.95
-0.56
0.02
0.70
1.42
2.07
2.51
2.50
1.87
0.61
-1.04
-2.64
-3.73
-4.09
-3.73
-3.00
-2.30
-1.93
-1.94
-2.19
-2.40
-2.41
-2.16
-1.75
-1.35
-1.07
-0.94
-0.87
-0.77
-0.62
-0.48
-0.43
-0.53
-0.77
-1.00
-1.07
-0.86
-0.45
-0.01
0.21
0.08
-0.36
-0.89
-1.20
-1.13
-0.67
-0.05
0.47
0.71
0.67
0.51
0.43
0.57
0.96
1.49
1.97
2.26
2.26
1.98
1.48
0.89
0.35
-0.01
-0.06
0.21
0.74
1.40
1.98
2.29
2.20
1.68
0.82
-0.19
-1.17
-2.01
-2.64
-3.08
-3.34
-3.42
-3.29
-2.96
-2.50
-1.99
-1.50
-1.06
-0.66
-0.25
0.15
0.49
0.67
0.63
0.36
-0.02
-0.40
-0.64
-0.69
-0.53
-0.23
0.14
0.51
0.84
1.14
1.42
1.70
1.95
2.13
2.15
1.97
1.58
1.04
0.49
0.09
-0.06
0.05
0.34
0.60
0.69
0.54
0.24
-0.00
0.03
0.52
1.52
2.94
4.54
5.98
6.91
7.05
6.33
4.87
2.99
1.07
-0.54
-1.65
-2.20
-2.25
-1.89
-1.23
-0.38
0.50
1.22
1.64
1.69
1.43
0.98
0.48
0.02
-0.33
-0.60
-0.80
-0.98
-1.22
-1.51
-1.89
-2.30
-2.67
-2.93
-3.07
-3.03
-2.86
-2.53
-2.08
-1.56
-1.03
-0.60
-0.37
-0.40
-0.72
-1.26
-1.92
-2.56
-3.01
-3.21
-3.17
-3.03
-3.07
-3.49
-4.35
-5.50
-6.63
-7.49
-7.89
-7.89
-7.63
-7.29
-7.04
-7.03
-7.44
-8.44
-10.11
-12.39
-15.00
-17.59
-19.83
-21.62
-23.08
-24.52
-26.29
-28.62
-31.57
-35.05
-38.82
-42.64
-46.33
-49.90
-53.58
-57.70
-62.54
-68.23
-74.60
-81.28
-87.80
-93.87
-99.46
-104.79
-110.06
-115.24
-119.96
-123.56
-125.58
-126.02
-125.40
-124.17
-122.16
-118.08
-109.68
-94.74
-72.12
-42.36
-7.42
30.35
68.91
106.67
141.90
171.84
192.68
200.68
193.96
173.85
144.94
113.55
85.62
65.37
55.08
55.62
66.94
87.89
115.63
145.22
170.24
184.31
182.92
164.54
130.72
85.72
35.50
-13.24
-54.42
-83.94
-100.63
-105.95
-102.54
-92.35
-75.81
-52.54
-23.02
10.21
42.72
69.74
87.77
95.16
91.59
77.15
52.27
18.57
-19.98
-57.15
-85.97
-101.03
-99.82
-82.61
-51.24
-8.46
41.77
93.45
138.45
168.27
176.87
162.95
130.24
85.68
36.60
-11.27
-54.00
-88.75
-112.96
-124.73
-123.71
-111.51
-90.82
-63.94
-31.94
4.56
43.41
79.79
106.98
119.17
114.51
96.05
69.74
40.95
11.76
-18.98
-53.02
-89.59
-124.07
-149.40
-159.12
-149.97
-122.60
-80.77
-30.06
23.08
71.64
109.19
131.43
137.82
131.69
118.35
102.02
83.42
59.93
28.24
-12.24
-57.50
-99.91
-131.24
-145.89
-142.00
-120.46
-83.32
-33.37
24.90
84.22
135.07
168.37
178.76
166.43
136.24
94.83
47.76
-1.49
-50.08
-94.11
-128.03
-146.53
-147.28
-132.60
-108.13
-79.50
-49.34
-17.08
18.51
56.12
90.91
116.39
127.85
124.80
110.47
88.88
61.76
27.92
-14.37
-63.90
-114.70
-157.39
-183.15
-187.60
-171.90
-140.85
-99.76
-52.71
-3.06
45.10
86.58
116.48
132.57
136.39
132.03
122.91
109.15
87.58
54.67
10.25
-40.36
-87.79
-122.26
-137.28
-131.19
-106.16
-66.24
-16.04
39.22
93.29
139.21
170.70
183.68
177.11
152.77
114.39
67.09
17.17
-28.00
-61.17
-77.25
-75.39
-59.64
-37.52
-17.01
-3.51
1.61
0.30
-4.29
-9.85
-15.82
-23.01
-32.43
-44.23
-57.33
-69.82
-79.83
-86.35
-89.66
-91.02
-91.95
-93.41
-95.26
-96.37
-95.33
-91.29
-84.49
-76.14
-67.86
-60.92
-55.71
-51.89
-48.74
-45.80
-43.02
-40.65
-38.78
-36.97
-34.30
-29.68
-22.53
-13.03
-2.15
8.78
18.57
26.58
32.73
37.31
40.73
43.29
45.26
46.88
48.42
50.04
51.70
53.06
53.55
52.60
49.87
45.44
39.82
33.78
28.20
23.76
20.84
19.40
19.04
19.20
19.28
18.88
17.77
15.90
13.42
10.55
7.60
4.89
2.65
0.87
-0.74
-2.75
-5.72
-9.88
-14.78
-19.23
-21.63
-20.56
-15.41
-6.70
4.11
15.30
25.47
33.99
40.98
46.89
52.24
57.62
63.69
71.17
80.39
90.74
100.47
107.09
108.27
102.84
91.30
75.40
57.31
38.75
20.73
3.67
-12.02
-25.87
-37.54
-47.27
-56.13
-65.62
-76.74
-89.12
-100.55
-107.56
-106.82
-96.53
-77.53
-53.24
-28.43
-7.62
6.36
12.97
13.54
10.27
5.22
-0.20
-5.40
-10.22
-14.62
-18.46
-21.40
-22.73
-21.37
-15.82
-4.46
13.68
38.01
65.64
91.45
109.55
115.45
107.79
88.97
63.85
37.59
13.58
-7.40
-26.39
-44.72
-62.65
-79.15
-92.51
-101.35
-105.09
-103.79
-97.61
-86.61
-70.84
-50.92
-28.26
-4.85
17.21
36.23
51.37
62.56
70.33
75.50
78.99
81.69
84.42
87.82
92.17
97.38
102.93
108.11
112.23
114.85
115.84
115.30
113.29
109.77
104.51
97.25
87.90
76.62
64.03
51.08
38.95
28.73
21.15
16.39
14.00
13.10
12.68
11.91
10.31
7.75
4.34
0.34
-3.93
-8.14
-11.98
-15.27
-18.02
-20.41
-22.66
-24.88
-26.99
-28.77
-30.06
-30.82
-31.17
-31.33
-31.43
-31.47
-31.36
-30.98
-30.30
-29.39
-28.46
-27.73
-27.40
-27.56
-28.16
-29.07
-30.02
-30.79
-31.18
-31.15
-30.70
-29.92
-28.90
-27.74
-26.50
-25.28
-24.13
-23.09
-22.16
-21.31
-20.53
-19.83
-19.34
-19.24
-19.68
-20.68
-22.08
-23.48
-24.31
-24.09
-22.53
-19.77
-16.31
-12.87
-10.09
-8.35
-7.59
-7.44
-7.32
-6.76
-5.49
-3.54
-1.21
1.09
2.92
3.96
4.10
3.37
1.97
0.21
-1.59
-3.08
-4.01
-4.32
-4.09
-3.54
-2.95
-2.49
-2.18
-1.95
-1.69
-1.38
-1.13
-1.09
-1.36
-1.93
-2.61
-3.19
-3.54
-3.63
-3.58
-3.56
-3.64
-3.83
-4.01
-4.06
-3.89
-3.48
-2.88
-2.21
-1.61
-1.29
-1.45
-2.25
-3.69
-5.60
-7.58
-9.17
-9.96
-9.78
-8.74
-7.18
-5.51
-4.06
-2.95
-2.19
-1.71
-1.48
-1.50
-1.76
-2.16
-2.51
-2.58
-2.26
-1.63
-0.94
-0.52
-0.55
-0.99
-1.61
-2.09
-2.22
-2.03
-1.70
-1.54
-1.75
-2.34
-3.15
-3.92
-4.41
-4.51
-4.25
-3.72
-3.09
-2.50
-2.04
-1.74
-1.59
-1.48
-1.32
-0.99
-0.41
0.39
1.29
2.12
2.63
2.56
1.72
0.03
-2.32
-4.94
-7.27
-8.77
-9.12
-8.30
-6.61
-4.54
-2.60
-1.16
-0.37
-0.11
-0.12
-0.16
-0.08
0.10
0.28
0.35
0.28
0.13
0.04
0.11
0.33
0.62
0.88
1.03
1.08
1.11
1.18
1.30
1.42
1.49
1.46
1.31
1.03
0.66
0.24
-0.16
-0.49
-0.68
-0.70
-0.51
-0.15
0.32
0.86
1.42
2.01
2.66
3.45
4.44
5.65
7.05
8.53
9.96
11.13
11.85
11.96
11.41
10.40
9.31
8.68
9.02
10.63
13.43
16.93
20.38
23.00
24.21
23.79
21.88
18.86
15.16
11.23
7.46
4.26
2.01
1.06
1.54
3.26
5.66
7.88
8.99
8.20
5.09
-0.29
-7.54
-16.01
-24.97
-33.71
-41.63
-48.34
-53.80
-58.45
-63.19
-69.10
-77.03
-87.16
-98.75
-110.38
-120.42
-127.68
-131.83
-133.36
-133.23
-132.24
-130.76
-128.62
-125.58
-121.74
-117.88
-115.44
-116.09
-121.08
-130.65
-143.58
-157.23
-167.80
-171.13
-163.78
-144.25
-113.83
-76.66
-38.52
-4.80
21.58
41.27
57.94
76.33
99.84
129.02
161.41
192.99
220.00
240.41
254.24
262.92
268.24
271.64
273.86
274.89
274.05
269.89
260.61
244.73
221.94
193.63
162.63
132.21
104.74
80.93
59.89
40.19
20.93
2.47
-13.97
-27.17
-36.77
-43.56
-48.90
-53.82
-58.47
-62.07
-63.53
-62.22
-58.39
-53.19
-48.12
-44.31
-42.08
-40.87
-39.68
-37.65
-34.45
-30.38
-26.07
-22.15
-18.94
-16.50
-14.82
-14.00
-14.36
-16.15
-19.48
-23.99
-29.03
-33.72
-37.39
-39.67
-40.61
-40.57
-40.01
-39.35
-38.83
-38.51
-38.31
-37.99
-37.22
-35.58
-32.71
-28.42
-22.80
-16.29
-9.56
-3.38
1.59
4.97
6.68
7.02
6.50
5.75
5.38
5.81
7.19
9.38
12.02
14.70
17.10
19.12
20.90
22.69
24.65
26.77
28.76
30.11
30.44
29.56
27.65
25.10
22.33
19.58
16.81
13.87
10.61
7.02
3.18
-0.85
-5.13
-9.79
-14.80
-19.84
-24.26
-27.25
-28.21
-26.98
-23.92
-19.77
-15.34
-11.19
-7.62
-4.60
-2.02
0.23
2.13
3.62
4.65
5.27
5.61
5.81
5.97
6.07
6.04
5.79
5.32
4.71
4.11
3.61
3.18
2.73
2.18
1.55
0.98
0.69
0.82
1.33
1.98
2.43
2.40
1.80
0.74
-0.52
-1.70
-2.65
-3.33
-3.79
-4.07
-4.21
-4.19
-4.12
-4.15
-4.49
-5.24
-6.29
-7.33
-7.97
-8.00
-7.45
-6.62
-5.86
-5.41
-5.24
-5.16
-4.88
-4.30
-3.48
-2.64
-2.04
-1.84
-2.02
-2.40
-2.71
-2.69
-2.14
-1.02
0.54
2.32
4.04
5.44
6.34
6.64
6.32
5.44
4.14
2.62
1.15
-0.03
-0.70
-0.74
-0.16
0.87
1.99
2.80
2.92
2.19
0.72
-1.16
-2.95
-4.21
-4.66
-4.24
-3.09
-1.47
0.25
1.73
2.65
2.77
1.99
0.46
-1.50
-3.39
-4.71
-5.10
-4.50
-3.17
-1.57
-0.23
0.50
0.54
0.11
-0.44
-0.74
-0.56
0.17
1.34
2.71
3.96
4.78
4.98
4.52
3.58
2.44
1.41
0.67
0.25
0.05
-0.03
-0.04
0.06
0.34
0.84
1.45
1.99
2.19
1.84
0.84
-0.72
-2.58
-4.35
-5.64
-6.17
-5.99
-5.34
-4.69
-4.46
-4.84
-5.75
-6.90
-7.90
-8.52
-8.73
-8.67
-8.50
-8.28
-7.97
-7.39
-6.48
-5.32
-4.18
-3.45
-3.45
-4.34
-5.99
-7.98
-9.69
-10.53
-10.09
-8.39
-5.86
-3.23
-1.22
-0.29
-0.42
-1.18
-1.95
-2.27
-1.98
-1.29
-0.59
-0.22
-0.29
-0.71
-1.33
-2.06
-2.87
-3.71
-4.39
-4.55
-3.84
-2.13
0.35
2.95
4.86
5.46
4.51
2.33
-0.34
-2.63
-3.79
-3.37
-1.33
1.98
5.95
9.83
12.89
14.62
14.79
13.54
11.30
8.69
6.37
4.78
4.02
3.90
4.03
3.99
3.60
2.87
2.01
1.21
0.54
-0.24
-1.47
-3.50
-6.48
-10.23
-14.28
-17.98
-20.68
-21.84
-21.25
-19.07
-15.78
-12.07
-8.57
-5.74
-3.80
-2.74
-2.47
-2.88
-3.88
-5.36
-7.28
-9.64
-12.53
-15.95
-19.69
-23.19
-25.64
-26.30
-24.90
-21.84
-18.03
-14.51
-11.99
-10.60
-10.00
-9.67
-9.23
-8.58
-7.83
-7.12
-6.53
-6.07
-5.68
-5.31
-4.89
-4.31
-3.41
-2.08
-0.34
1.61
3.49
5.08
6.30
7.25
8.14
9.17
10.43
11.95
13.73
15.73
17.83
19.76
21.05
21.20
19.84
17.02
13.31
9.66
7.05
6.15
6.96
8.81
10.64
11.37
10.43
8.00
4.86
2.17
0.90
1.51
3.88
7.40
11.30
14.90
17.64
19.14
19.14
17.58
14.71
11.13
7.68
5.20
4.26
5.05
7.32
10.54
14.10
17.37
19.81
21.06
20.98
19.73
17.68
15.30
12.90
10.55
8.05
5.15
1.70
-2.19
-6.15
-9.68
-12.26
-13.48
-13.16
-11.40
-8.62
-5.57
-3.15
-2.14
-2.90
-5.14
-8.02
-10.41
-11.41
-10.66
-8.51
-5.75
-3.15
-1.11
0.45
1.93
3.82
6.28
9.18
12.08
14.57
16.34
17.38
17.84
17.97
17.96
17.89
17.68
17.16
16.23
14.90
13.39
12.00
11.00
10.49
10.36
10.39
10.37
10.22
9.89
9.31
8.30
6.63
4.16
1.02
-2.42
-5.62
-8.12
-9.73
-10.52
-10.76
-10.69
-10.41
-9.89
-9.07
-7.99
-6.83
-5.84
-5.17
-4.82
-4.55
-4.13
-3.45
-2.67
-2.16
-2.36
-3.55
-5.73
-8.55
-11.52
-14.07
-15.77
-16.35
-15.74
-14.07
-11.60
-8.75
-5.97
-3.68
-2.14
-1.42
-1.37
-1.70
-2.07
-2.22
-2.05
-1.67
-1.37
-1.44
-2.05
-3.14
-4.43
-5.56
-6.29
-6.67
-6.96
-7.47
-8.35
-9.49
-10.59
-11.30
-11.43
-10.96
-9.94
-8.50
-6.73
-4.72
-2.60
-0.49
1.44
3.09
4.43
5.44
6.12
6.53
6.71
6.76
6.68
6.32
5.45
3.81
1.39
-1.58
-4.62
-7.22
-9.09
-10.27
-11.06
-11.85
-12.88
-14.16
-15.44
-16.38
-16.69
-16.24
-15.07
-13.40
-11.49
-9.66
-8.15
-7.14
-6.66
-6.68
-7.00
-7.34
-7.39
-6.92
-5.85
-4.30
-2.58
-0.99
0.25
1.11
1.68
2.14
2.59
3.04
3.40
3.54
3.34
2.82
2.12
1.50
1.18
1.37
2.07
3.13
4.29
5.26
5.78
5.65
4.84
3.33
1.33
-0.90
-3.03
-4.75
-5.93
-6.59
-6.84
-6.82
-6.62
-6.32
-6.02
-6.01
-6.62
-8.15
-10.62
-13.72
-16.87
-19.48
-21.18
-22.04
-22.47
-23.04
-24.16
-25.81
-27.52
-28.55
-28.32
-26.66
-24.00
-21.14
-18.84
-17.55
-17.17
-17.25
-17.28
-17.01
-16.48
-15.95
-15.63
-15.52
-15.38
-14.91
-13.88
-12.24
-10.14
-7.81
-5.54
-3.61
-2.25
-1.62
-1.74
-2.48
-3.56
-4.70
-5.63
-6.18
-6.31
-6.02
-5.38
-4.48
-3.45
-2.34
-1.13
0.32
2.23
4.79
8.03
11.79
15.79
19.69
23.36
26.78
30.00
33.02
35.64
37.52
38.32
37.84
36.23
33.89
31.37
29.14
27.40
26.06
24.87
23.65
22.36
21.14
20.15
19.47
19.01
18.57
17.91
16.85
15.36
13.49
11.41
9.36
7.55
6.06
4.81
3.56
2.07
0.25
-1.78
-3.68
-5.15
-6.07
-6.62
-7.15
-7.93
-8.89
-9.48
-8.90
-6.46
-2.04
3.72
9.58
14.27
17.00
17.77
17.23
16.11
14.72
12.86
10.11
6.42
2.38
-0.89
-2.31
-1.52
0.90
3.62
5.26
5.00
2.92
-0.08
-2.80
-4.21
-3.84
-1.86
1.15
4.51
7.78
10.78
13.51
15.87
17.57
18.14
17.24
14.91
11.69
8.42
5.93
4.61
4.32
4.59
4.89
4.90
4.60
4.16
3.82
3.79
4.15
4.88
5.84
6.72
7.10
6.64
5.22
2.99
0.37
-2.27
-4.82
-7.48
-10.53
-14.05
-17.77
-21.13
-23.61
-25.00
-25.46
-25.27
-24.61
-23.36
-21.24
-18.12
-14.22
-10.11
-6.54
-4.09
-2.97
-3.04
-3.94
-5.24
-6.64
-7.90
-9.05
-10.34
-12.13
-14.71
-17.99
-21.34
-23.74
-24.26
-22.46
-18.65
-13.69
-8.54
-3.75
0.70
5.15
9.84
14.65
18.99
22.19
23.88
24.15
23.50
22.46
21.26
19.83
17.97
15.80
13.91
13.27
14.75
18.54
23.88
29.20
32.81
33.55
31.30
26.89
21.60
16.52
12.15
8.40
4.85
1.14
-2.88
-7.27
-12.09
-17.51
-23.68
-30.46
-37.28
-43.21
-47.32
-49.05
-48.46
-46.18
-43.09
-39.95
-37.11
-34.58
-32.11
-29.44
-26.49
-23.40
-20.41
-17.78
-15.72
-14.24
-13.26
-12.56
-11.85
-10.83
-9.27
-7.09
-4.47
-1.83
0.20
1.03
0.32
-1.85
-4.99
-8.32
-11.02
-12.49
-12.54
-11.37
-9.51
-7.57
-6.06
-5.12
-4.48
-3.52
-1.55
1.91
6.86
12.77
18.77
23.95
27.61
29.49
29.73
28.77
27.19
25.57
24.45
24.22
25.07
26.94
29.50
32.14
34.20
35.13
34.69
33.09
30.86
28.67
27.02
26.03
25.43
24.78
23.77
22.38
20.93
19.85
19.40
19.45
19.66
19.68
19.40
19.01
18.78
18.70
18.37
17.13
14.49
10.48
5.79
1.42
-1.77
-3.57
-4.43
-5.18
-6.45
-8.33
-10.37
-11.84
-12.20
-11.37
-9.68
-7.67
-5.76
-4.06
-2.49
-1.01
0.15
0.49
-0.51
-2.99
-6.47
-9.95
-12.33
-12.96
-12.00
-10.32
-9.02
-8.83
-9.72
-10.99
-11.73
-11.42
-10.26
-9.08
-8.93
-10.54
-14.00
-18.69
-23.55
-27.45
-29.48
-29.20
-26.63
-22.22
-16.76
-11.12
-6.07
-2.09
0.72
2.50
3.53
4.04
4.15
3.94
3.45
2.75
1.96
1.14
0.31
-0.54
-1.38
-2.12
-2.65
-2.89
-2.87
-2.68
-2.47
-2.34
-2.32
-2.38
-2.50
-2.62
-2.72
-2.84
-3.09
-3.69
-4.90
-6.93
-9.75
-12.98
-15.95
-17.88
-18.18
-16.67
-13.58
-9.46
-4.93
-0.49
3.56
7.07
9.95
12.17
13.70
14.58
14.89
14.77
14.37
13.74
12.93
11.96
10.89
9.83
8.93
8.29
7.92
7.75
7.63
7.38
6.86
5.99
4.77
3.25
1.56
-0.17
-1.79
-3.20
-4.37
-5.39
-6.52
-8.12
-10.52
-13.83
-17.80
-21.68
-24.47
-25.19
-23.37
-19.21
-13.62
-7.84
-2.91
0.63
2.89
4.30
5.31
6.09
6.60
6.62
6.09
5.10
3.84
2.48
1.04
-0.59
-2.60
-5.11
-8.06
-11.22
-14.18
-16.48
-17.83
-18.12
-17.62
-16.82
-16.24
-16.23
-16.75
-17.45
-17.75
-17.18
-15.51
-12.84
-9.56
-6.20
-3.40
-1.68
-1.38
-2.46
-4.46
-6.49
-7.46
-6.47
-3.13
2.25
8.79
15.34
20.95
25.11
27.83
29.39
30.16
30.35
30.00
29.07
27.61
25.85
24.07
22.55
21.41
20.62
19.99
19.36
18.64
17.89
17.21
16.74
16.54
16.54
16.62
16.58
16.22
15.41
14.14
12.50
10.68
8.86
7.16
5.63
4.22
2.86
1.53
0.17
-1.33
-3.18
-5.62
-8.83
-12.69
-16.80
-20.43
-22.72
-22.98
-20.91
-16.80
-11.39
-5.66
-0.53
3.38
5.86
7.07
7.36
7.11
6.68
6.33
6.23
6.47
7.00
7.71
8.41
8.96
9.32
9.57
9.76
9.99
10.21
10.33
10.25
9.87
9.13
8.00
6.50
4.74
2.93
1.27
-0.10
-1.18
-2.12
-3.14
-4.38
-5.83
-7.29
-8.54
-9.41
-9.90
-10.15
-10.42
-11.03
-12.29
-14.43
-17.47
-21.00
-24.24
-26.22
-26.05
-23.40
-18.60
-12.59
-6.48
-1.22
2.72
5.34
6.93
7.79
8.18
8.23
8.15
8.13
8.37
8.97
9.82
10.66
11.17
11.20
10.81
10.28
9.92
9.89
10.11
10.27
10.04
9.23
7.88
6.20
4.50
2.93
1.51
0.06
-1.64
-3.78
-6.34
-9.17
-11.95
-14.33
-16.01
-16.85
-16.83
-16.09
-14.90
-13.65
-12.82
-12.93
-14.36
-17.17
-20.89
-24.60
-27.18
-27.69
-25.73
-21.51
-15.77
-9.39
-3.09
2.68
7.74
12.03
15.52
18.15
19.88
20.76
20.90
20.47
19.68
18.72
17.75
16.94
16.40
16.21
16.39
16.91
17.65
18.48
19.22
19.74
19.96
19.81
19.17
17.88
15.80
12.89
9.38
5.70
2.34
-0.36
-2.30
-3.62
-4.53
-5.23
-5.87
-6.70
-8.08
-10.37
-13.66
-17.52
-21.03
-23.10
-22.93
-20.39
-16.07
-10.99
-6.18
-2.31
0.42
2.18
3.20
3.68
3.74
3.43
2.89
2.30
1.90
1.82
2.10
2.64
3.29
3.96
4.67
5.49
6.50
7.60
8.60
9.26
9.45
9.21
8.74
8.25
7.77
7.20
6.37
5.10
3.38
1.30
-0.97
-3.20
-5.20
-6.82
-7.97
-8.67
-9.08
-9.58
-10.63
-12.64
-15.72
-19.50
-23.12
-25.49
-25.67
-23.19
-18.35
-12.04
-5.46
0.38
4.94
8.20
10.44
11.97
12.94
13.33
13.15
12.49
11.60
10.77
10.22
9.97
9.94
9.99
10.07
10.27
10.79
11.76
13.15
14.68
15.91
16.44
16.15
15.25
14.21
13.53
13.47
13.94
14.64
15.22
15.50
15.44
15.15
14.68
14.10
13.52
13.14
13.21
13.88
14.89
15.64
15.33
13.38
9.90
5.64
1.78
-0.72
-1.59
-1.41
-1.29
-2.27
-4.80
-8.51
-12.43
-15.54
-17.17
-17.29
-16.29
-14.73
-12.91
-10.87
-8.43
-5.53
-2.31
0.86
3.52
5.39
6.47
7.06
7.59
8.39
9.61
11.13
12.64
13.78
14.20
13.67
12.13
9.74
6.80
3.76
0.96
-1.34
-3.07
-4.28
-5.07
-5.52
-5.71
-5.73
-5.75
-6.03
-6.83
-8.32
-10.38
-12.65
-14.62
-15.79
-15.96
-15.23
-13.98
-12.62
-11.43
-10.49
-9.77
-9.22
-8.93
-9.02
-9.53
-10.32
-11.15
-11.70
-11.78
-11.35
-10.42
-8.99
-7.02
-4.44
-1.37
1.90
4.94
7.40
9.20
10.66
12.28
14.52
17.42
20.39
22.39
22.28
19.37
13.79
6.47
-1.10
-7.49
-11.71
-13.49
-13.13
-11.24
-8.39
-4.99
-1.36
2.12
4.90
6.35
6.00
3.77
0.11
-4.12
-7.99
-10.84
-12.50
-13.32
-13.90
-14.71
-15.88
-17.19
-18.26
-18.84
-18.98
-18.93
-19.00
-19.29
-19.55
-19.34
-18.22
-15.98
-12.82
-9.28
-5.99
-3.54
-2.22
-2.01
-2.61
-3.54
-4.36
-4.73
-4.57
-3.96
-3.12
-2.37
-2.02
-2.41
-3.81
-6.21
-9.14
-11.64
-12.54
-10.89
-6.53
-0.21
6.61
12.32
15.87
17.03
16.34
14.68
12.82
11.17
9.75
8.45
7.14
5.82
4.58
3.43
2.32
1.14
-0.23
-1.76
-3.16
-4.07
-4.13
-3.29
-1.86
-0.40
0.53
0.72
0.37
-0.10
-0.34
-0.38
-0.55
-1.27
-2.68
-4.45
-5.87
-6.25
-5.17
-2.71
0.64
4.14
7.14
9.17
10.03
9.80
8.67
7.03
5.28
3.78
2.80
2.38
2.39
2.57
2.64
2.48
2.17
1.97
2.19
3.04
4.54
6.47
8.48
10.19
11.30
11.61
11.01
9.52
7.26
4.45
1.53
-1.01
-2.73
-3.51
-3.68
-3.95
-5.04
-7.24
-10.10
-12.55
-13.34
-11.63
-7.41
-1.47
5.02
11.07
16.10
19.93
22.28
22.65
20.45
15.48
8.46
1.01
-4.79
-7.32
-6.08
-1.87
3.64
8.75
12.33
14.06
14.19
13.15
11.30
8.92
6.43
4.36
3.38
3.80
5.43
7.59
9.30
9.75
8.61
6.08
2.77
-0.57
-3.37
-5.45
-6.90
-8.03
-9.18
-10.57
-12.29
-14.30
-16.56
-19.02
-21.55
-23.90
-25.68
-26.42
-25.81
-23.86
-21.01
-17.99
-15.53
-14.16
-13.96
-14.64
-15.71
-16.65
-17.08
-16.83
-15.87
-14.27
-12.18
-9.78
-7.32
-5.17
-3.74
-3.41
-4.47
-6.85
-10.10
-13.35
-15.46
-15.24
-11.94
-5.52
3.15
12.46
20.62
26.15
28.41
27.66
24.72
20.46
15.38
9.58
2.94
-4.34
-11.61
-17.90
-22.28
-24.42
-24.70
-24.05
-23.46
-23.56
-24.35
-25.37
-25.99
-25.80
-24.70
-22.94
-20.81
-18.53
-16.20
-13.87
-11.71
-10.07
-9.40
-10.07
-12.15
-15.41
-19.32
-23.27
-26.70
-29.27
-30.88
-31.56
-31.54
-31.05
-30.27
-29.30
-28.08
-26.46
-24.22
-21.26
-17.68
-13.81
-10.16
-7.14
-5.03
-3.87
-3.57
-3.97
-5.02
-6.64
-8.75
-11.11
-13.34
-15.05
-16.01
-16.20
-15.85
-15.27
-14.69
-14.26
-14.03
-14.09
-14.50
-15.25
-16.22
-17.10
-17.63
-17.68
-17.43
-17.28
-17.59
-18.53
-19.91
-21.39
-22.64
-23.64
-24.70
-26.38
-29.10
-32.96
-37.50
-41.81
-44.78
-45.48
-43.53
-39.11
-32.87
-25.58
-17.76
-9.57
-0.92
8.31
18.03
27.83
37.29
46.00
53.84
60.86
67.10
72.47
76.75
79.74
81.44
82.14
82.27
82.25
82.26
82.28
82.18
81.83
81.30
80.69
80.10
79.46
78.50
76.90
74.40
70.98
66.88
62.52
58.24
54.22
50.32
46.30
41.93
37.27
32.60
28.39
24.94
22.19
19.71
16.87
13.12
8.25
2.40
-3.98
-10.35
-16.17
-20.93
-24.17
-25.53
-24.86
-22.31
-18.47
-14.13
-10.09
-6.87
-4.58
-2.96
-1.71
-0.66
0.13
0.39
-0.11
-1.46
-3.54
-6.10
-8.89
-11.71
-14.43
-16.96
-19.23
-21.23
-22.98
-24.59
-26.17
-27.73
-29.17
-30.20
-30.52
-29.85
-28.10
-25.36
-21.92
-18.23
-14.73
-11.84
-9.93
-9.25
-9.89
-11.75
-14.46
-17.37
-19.72
-20.89
-20.60
-19.04
-16.74
-14.40
-12.63
-11.89
-12.42
-14.26
-17.19
-20.67
-23.88
-25.87
-25.91
-23.71
-19.59
-14.30
-8.77
-3.71
0.46
3.65
5.97
7.54
8.48
8.90
8.87
8.51
7.95
7.38
6.99
6.97
7.38
8.15
9.02
9.70
10.00
9.87
9.47
9.02
8.72
8.65
8.78
9.03
9.33
9.63
9.93
10.22
10.52
10.78
10.99
11.11
11.14
11.08
10.92
10.65
10.31
9.91
9.42
8.77
7.73
6.04
3.51
0.21
-3.42
-6.61
-8.55
-8.72
-7.14
-4.38
-1.22
1.64
3.93
5.73
7.26
8.71
10.01
10.99
11.49
11.56
11.43
11.37
11.60
12.12
12.81
13.46
13.88
13.97
13.70
13.12
12.32
11.46
10.73
10.30
10.26
10.54
10.91
11.12
10.93
10.32
9.46
8.66
8.15
8.00
8.07
8.10
7.86
7.30
6.57
5.92
5.63
5.89
6.80
8.26
10.07
11.82
13.01
13.21
12.27
10.46
8.37
6.70
5.89
6.00
6.70
7.52
8.10
8.30
8.15
7.74
7.10
6.26
5.30
4.37
3.60
3.07
2.71
2.40
2.06
1.76
1.59
1.66
1.91
2.14
2.15
1.81
1.13
0.25
-0.66
-1.47
-2.10
-2.54
-2.84
-3.07
-3.34
-3.71
-4.16
-4.58
-4.86
-4.93
-4.88
-4.89
-5.14
-5.74
-6.59
-7.49
-8.15
-8.42
-8.22
-7.60
-6.70
-5.68
-4.82
-4.41
-4.73
-5.87
-7.62
-9.54
-11.04
-11.66
-11.22
-9.90
-8.11
-6.28
-4.70
-3.39
-2.24
-1.15
-0.08
0.80
1.30
1.25
0.64
-0.36
-1.42
-2.18
-2.43
-2.18
-1.68
-1.27
-1.22
-1.52
-1.91
-1.99
-1.46
-0.32
1.13
2.36
2.91
2.58
1.53
0.12
-1.22
-2.22
-2.89
-3.40
-4.04
-5.03
-6.49
-8.35
-10.41
-12.46
-14.19
-15.34
-15.63
-14.93
-13.26
-10.91
-8.40
-6.30
-5.07
-4.81
-5.23
-5.71
-5.63
-4.56
-2.43
0.59
4.23
8.32
12.80
17.68
22.81
27.85
32.34
35.86
38.25
39.68
40.42
40.66
40.23
38.53
34.72
27.91
17.37
2.70
-16.05
-38.10
-61.71
-84.09
-101.81
-111.54
-111.24
-100.86
-82.57
-60.03
-37.21
-17.17
-1.45
9.94
17.87
23.37
27.15
29.53
30.62
30.60
29.81
28.74
27.77
27.07
26.45
25.49
23.74
21.01
17.55
14.00
11.22
9.82
9.93
11.01
12.14
12.46
11.57
9.76
7.72
6.21
5.59
5.72
6.09
6.18
5.71
4.74
3.60
2.63
2.04
1.83
1.85
1.91
1.87
1.69
1.46
1.21
0.95
0.54
-0.13
-1.07
-2.02
-2.66
-2.63
-1.89
-0.70
0.51
1.24
1.33
0.80
-0.03
-0.87
-1.47
-1.73
-1.68
-1.43
-1.13
-0.91
-0.88
-1.00
-1.21
-1.38
-1.50
-1.59
-1.76
-2.07
-2.47
-2.84
-3.10
-3.31
-3.61
-4.13
-4.86
-5.54
-5.82
-5.45
-4.47
-3.18
-2.03
-1.36
-1.28
-1.60
-2.00
-2.24
-2.22
-2.01
-1.66
-1.20
-0.61
0.07
0.74
1.21
1.34
1.09
0.61
0.06
-0.42
-0.79
-1.12
-1.44
-1.68
-1.76
-1.57
-1.13
-0.55
-0.03
0.31
0.43
0.31
-0.01
-0.54
-1.25
-2.11
-2.98
-3.70
-4.19
-4.47
-4.75
-5.19
-5.90
-6.80
-7.66
-8.21
-8.29
-7.94
-7.33
-6.69
-6.13
-5.62
-4.97
-4.00
-2.69
-1.21
0.12
1.06
1.48
1.48
1.23
0.88
0.54
0.22
0.02
-0.01
0.17
0.48
0.76
0.86
0.78
0.73
0.91
1.41
1.99
2.35
2.26
1.75
1.18
0.95
1.25
2.01
2.87
3.51
3.78
3.77
3.67
3.62
3.59
3.42
2.94
2.12
1.12
0.28
-0.07
0.29
1.24
2.33
2.98
2.71
1.42
-0.48
-2.24
-3.15
-2.81
-1.34
0.81
3.04
5.03
6.79
8.60
10.83
13.62
16.88
20.20
23.19
25.55
27.30
28.69
30.12
31.96
34.46
37.71
41.72
46.38
51.33
55.88
59.03
59.78
57.50
52.31
45.14
37.36
30.27
24.58
20.26
16.76
13.31
9.37
4.65
-0.87
-7.15
-14.15
-21.93
-30.57
-40.16
-50.72
-62.07
-73.83
-85.26
-95.38
-103.19
-107.77
-108.66
-105.90
-100.10
-92.32
-83.73
-75.34
-67.67
-60.72
-54.13
-47.49
-40.56
-33.47
-26.52
-20.03
-14.20
-9.06
-4.61
-0.88
2.10
4.41
6.29
8.08
10.02
12.11
14.07
15.53
16.23
16.16
15.54
14.61
13.54
12.35
11.07
9.74
8.59
7.85
7.71
8.15
8.97
9.88
10.62
11.05
11.19
11.17
11.05
10.82
10.37
9.51
8.15
6.38
4.44
2.60
1.13
0.11
-0.53
-0.92
-1.20
-1.51
-1.88
-2.39
-3.12
-4.11
-5.37
-6.85
-8.46
-10.12
-11.72
-13.19
-14.39
-15.26
-15.75
-15.89
-15.76
-15.47
-15.07
-14.54
-13.80
-12.77
-11.39
-9.71
-7.91
-6.25
-5.02
-4.37
-4.27
-4.51
-4.79
-4.78
-4.31
-3.36
-1.99
-0.35
1.43
3.16
4.62
5.62
6.15
6.40
6.71
7.34
8.31
9.34
10.06
10.17
9.72
9.01
8.50
8.57
9.32
10.56
11.96
13.15
13.86
14.06
13.92
13.76
13.94
14.63
15.70
16.69
16.96
16.03
13.76
10.41
6.62
3.06
0.32
-1.24
-1.54
-0.75
0.81
2.73
4.56
5.96
6.72
6.83
6.41
5.72
5.00
4.48
4.27
4.43
4.93
5.73
6.75
7.95
9.25
10.53
11.63
12.44
12.90
13.09
13.14
13.16
13.15
13.01
12.56
11.68
10.40
8.92
7.53
6.47
5.88
5.71
5.77
5.79
5.51
4.83
3.80
2.66
1.68
1.08
0.92
1.08
1.34
1.41
1.05
0.07
-1.62
-3.93
-6.59
-9.12
-10.93
-11.50
-10.53
-8.14
-4.75
-1.00
2.50
5.29
7.18
8.18
8.44
8.19
7.63
6.93
6.21
5.55
4.99
4.61
4.44
4.53
4.83
5.21
5.54
5.71
5.74
5.76
5.92
6.27
6.68
6.96
6.90
6.43
5.68
4.84
4.05
3.31
2.48
1.38
-0.04
-1.68
-3.26
-4.44
-4.97
-4.84
-4.28
-3.69
-3.53
-4.13
-5.63
-7.81
-10.25
-12.41
-13.75
-13.94
-12.87
-10.68
-7.70
-4.42
-1.29
1.30
3.19
4.38
5.04
5.34
5.37
5.16
4.69
4.00
3.23
2.59
2.22
2.13
2.19
2.19
2.05
1.80
1.56
1.47
1.54
1.67
1.69
1.48
1.05
0.56
0.21
0.13
0.34
0.69
0.91
0.71
-0.04
-1.31
-2.81
-4.14
-4.93
-5.04
-4.54
-3.63
-2.64
-1.82
-1.41
-1.60
-2.50
-4.15
-6.30
-8.44
-9.85
-9.87
-8.12
-4.71
-0.21
4.59
8.93
12.34
14.71
16.16
16.93
17.25
17.34
17.41
17.74
18.63
20.35
22.91
26.02
29.06
31.31
32.14
31.28
28.86
25.32
21.21
16.96
12.80
8.85
5.13
1.67
-1.48
-4.25
-6.65
-8.78
-10.74
-12.64
-14.50
-16.32
-17.99
-19.44
-20.64
-21.61
-22.38
-23.00
-23.48
-23.81
-23.93
-23.82
-23.42
-22.69
-21.63
-20.28
-18.86
-17.72
-17.26
-17.71
-18.98
-20.51
-21.43
-20.98
-18.87
-15.54
-12.05
-9.52
-8.62
-9.08
-9.89
-9.74
-7.80
-4.06
0.64
5.20
8.83
11.37
13.20
14.77
16.19
17.15
17.14
15.82
13.34
10.31
7.51
5.56
4.64
4.57
4.86
5.04
4.80
4.09
3.04
1.89
0.79
-0.21
-1.19
-2.26
-3.40
-4.44
-5.15
-5.31
-4.91
-4.12
-3.24
-2.59
-2.32
-2.44
-2.83
-3.33
-3.81
-4.19
-4.43
-4.52
-4.52
-4.52
-4.67
-5.10
-5.93
-7.19
-8.75
-10.34
-11.58
-12.13
-11.79
-10.63
-9.02
-7.49
-6.52
-6.31
-6.75
-7.39
-7.72
-7.39
-6.42
-5.10
-3.90
-3.15
-2.96
-3.19
-3.60
-3.90
-3.95
-3.73
-3.28
-2.65
-1.89
-1.08
-0.32
0.25
0.48
0.24
-0.48
-1.58
-2.88
-4.18
-5.27
-5.98
-6.22
-5.99
-5.37
-4.57
-3.82
-3.36
-3.34
-3.71
-4.32
-4.87
-5.09
-4.83
-4.09
-3.03
-1.88
-0.89
-0.19
0.17
0.21
0.07
-0.11
-0.22
-0.16
0.01
0.20
0.26
0.10
-0.26
-0.67
-0.92
-0.85
-0.43
0.22
0.89
1.38
1.57
1.50
1.28
1.08
1.04
1.14
1.36
1.55
1.65
1.69
1.76
1.99
2.41
2.94
3.40
3.63
3.55
3.26
2.90
2.62
2.46
2.32
2.13
1.83
1.47
1.16
1.02
1.13
1.44
1.87
2.34
2.74
2.96
2.89
2.37
1.38
-0.04
-1.66
-3.20
-4.34
-4.90
-4.83
-4.22
-3.30
-2.38
-1.72
-1.54
-1.93
-2.81
-3.97
-5.11
-5.87
-6.01
-5.44
-4.27
-2.83
-1.50
-0.53
0.03
0.41
0.92
1.76
2.87
3.96
4.63
4.64
4.04
3.14
2.35
1.97
2.06
2.46
3.00
3.53
4.04
4.59
5.28
6.13
7.10
8.07
8.91
9.56
10.01
10.35
10.70
11.12
11.63
12.13
12.52
12.70
12.61
12.15
11.17
9.48
6.93
3.54
-0.36
-4.13
-7.00
-8.29
-7.65
-5.27
-1.79
1.83
4.69
6.18
6.22
5.15
3.57
2.00
0.68
-0.48
-1.76
-3.36
-5.24
-7.16
-8.77
-9.84
-10.31
-10.35
-10.16
-9.91
-9.68
-9.43
-9.11
-8.74
-8.37
-8.06
-7.85
-7.65
-7.35
-6.77
-5.81
-4.52
-3.08
-1.73
-0.64
0.14
0.78
1.50
2.48
3.66
4.80
5.52
5.56
4.90
3.78
2.60
1.75
1.50
1.97
3.10
4.70
6.39
7.71
8.19
7.61
6.26
4.95
4.66
6.09
9.23
13.23
16.75
18.66
18.45
16.47
13.58
10.66
8.17
6.06
4.04
1.82
-0.68
-3.38
-6.10
-8.78
-11.22
-13.07
-13.68
-12.40
-8.90
-3.52
2.68
8.34
12.26
13.91
13.40
11.38
8.42
4.92
1.06
-2.91
-6.51
-9.04
-9.88
-8.84
-6.36
-3.46
-1.24
-0.53
-1.56
-3.97
-7.03
-10.03
-12.56
-14.54
-16.20
-17.82
-19.51
-21.14
-22.32
-22.58
-21.57
-19.27
-15.99
-12.35
-9.03
-6.54
-5.13
-4.74
-5.19
-6.34
-8.13
-10.48
-13.13
-15.55
-17.03
-17.04
-15.41
-12.58
-9.38
-6.65
-4.93
-4.20
-3.96
-3.51
-2.32
-0.18
2.72
5.96
9.08
11.81
14.12
16.04
17.66
18.95
19.85
20.34
20.55
20.79
21.30
22.11
22.93
23.26
22.68
21.09
18.88
16.63
14.90
13.92
13.51
13.27
12.85
12.04
10.90
9.56
8.18
6.84
5.54
4.25
2.85
1.11
-1.26
-4.45
-8.40
-12.72
-16.78
-19.90
-21.65
-21.97
-21.11
-19.41
-17.17
-14.53
-11.65
-8.78
-6.26
-4.52
-3.79
-4.06
-5.06
-6.37
-7.61
-8.48
-8.85
-8.63
-7.84
-6.54
-4.93
-3.24
-1.77
-0.72
-0.13
0.18
0.43
0.79
1.28
1.75
1.95
1.66
0.82
-0.48
-2.04
-3.59
-4.85
-5.67
-5.92
-5.67
-5.10
-4.54
-4.38
-4.97
-6.45
-8.66
-11.10
-13.02
-13.74
-12.77
-10.03
-5.81
-0.72
4.60
9.60
13.97
17.62
20.59
22.94
24.68
25.78
26.19
25.95
25.18
24.10
22.99
22.11
21.62
21.56
21.83
22.20
22.43
22.40
22.14
21.83
21.68
21.77
21.92
21.77
20.98
19.46
17.40
15.14
13.01
11.07
9.11
6.80
3.83
0.16
-3.96
-8.13
-11.86
-14.66
-16.28
-16.60
-15.77
-14.10
-12.03
-10.09
-8.81
-8.74
-10.23
-13.30
-17.39
-21.44
-24.04
-23.97
-20.71
-14.63
-6.90
1.02
7.91
13.12
16.67
18.91
20.31
21.21
21.81
22.19
22.30
22.00
21.10
19.43
16.94
13.79
10.38
7.15
4.38
2.17
0.42
-1.01
-2.15
-2.89
-3.06
-2.62
-1.70
-0.67
0.18
0.70
0.97
1.20
1.60
2.24
2.97
3.63
4.12
4.47
4.75
5.00
5.09
4.72
3.63
1.76
-0.67
-3.18
-5.28
-6.75
-7.76
-8.77
-10.34
-12.69
-15.55
-18.24
-19.95
-20.11
-18.70
-16.17
-13.21
-10.40
-8.00
-5.98
-4.16
-2.44
-0.94
0.03
0.21
-0.55
-2.14
-4.22
-6.31
-7.89
-8.59
-8.23
-6.89
-4.85
-2.57
-0.55
0.78
1.17
0.64
-0.57
-2.09
-3.49
-4.43
-4.82
-4.76
-4.53
-4.37
-4.44
-4.68
-4.86
-4.77
-4.27
-3.43
-2.46
-1.57
-0.85
-0.28
0.33
1.07
1.95
2.79
3.39
3.64
3.63
3.61
3.86
4.44
5.18
5.70
5.65
4.87
3.56
2.21
1.35
1.32
2.12
3.47
5.01
6.55
8.12
9.93
12.18
14.84
17.79
20.78
23.74
26.76
30.03
33.66
37.50
41.11
43.91
45.41
45.41
44.05
41.73
38.89
35.92
33.01
30.19
27.35
24.29
20.68
16.01
9.66
1.10
-9.70
-22.05
-34.40
-44.81
-51.48
-53.49
-51.15
-45.74
-39.05
-32.58
-27.19
-23.10
-20.18
-18.32
-17.61
-18.14
-19.84
-22.30
-24.93
-27.09
-28.35
-28.59
-27.92
-26.68
-25.21
-23.81
-22.69
-21.89
-21.37
-21.02
-20.79
-20.70
-20.79
-21.00
-21.09
-20.68
-19.37
-16.91
-13.37
-9.11
-4.68
-0.64
2.59
4.81
5.99
6.35
6.21
5.85
5.40
4.80
3.86
2.39
0.42
-1.82
-3.90
-5.37
-6.01
-5.82
-5.04
-4.00
-3.01
-2.20
-1.59
-1.11
-0.64
-0.11
0.50
1.20
2.02
3.05
4.36
5.88
7.27
7.89
7.08
4.51
0.49
-3.98
-7.58
-9.16
-8.20
-5.04
-0.64
3.85
7.48
9.78
10.74
10.67
9.93
8.82
7.44
5.86
4.17
2.62
1.63
1.60
2.73
4.77
7.12
9.02
9.96
9.79
8.84
7.68
6.79
6.40
6.46
6.64
6.62
6.02
4.64
2.45
-0.31
-3.26
-5.92
-8.00
-9.42
-10.34
-11.01
-11.54
-11.86
-11.77
-11.20
-10.36
-9.75
-9.99
-11.52
-14.30
-17.77
-20.96
-22.90
-23.00
-21.23
-18.18
-14.77
-11.89
-10.07
-9.40
-9.54
-9.95
-10.02
-9.22
-7.19
-3.77
0.97
6.76
13.19
19.85
26.54
33.18
39.80
46.34
52.51
57.79
61.57
63.33
62.96
60.70
57.15
53.08
49.25
46.16
44.00
42.54
41.24
39.42
36.46
32.06
26.36
19.85
13.21
7.07
1.83
-2.41
-5.76
-8.45
-10.69
-12.61
-14.28
-15.81
-17.38
-19.18
-21.35
-23.80
-26.20
-28.04
-28.84
-28.37
-26.76
-24.47
-22.08
-20.06
-18.61
-17.70
-17.17
-16.88
-16.79
-16.95
-17.42
-18.23
-19.28
-20.46
-21.59
-22.51
-23.10
-23.30
-23.14
-22.71
-22.10
-21.35
-20.48
-19.48
-18.43
-17.44
-16.67
-16.20
-15.96
-15.72
-15.19
-14.16
-12.61
-10.75
-8.87
-7.30
-6.26
-5.78
-5.82
-6.17
-6.61
-6.84
-6.64
-5.78
-4.08
-1.45
2.00
5.97
9.94
13.32
15.61
16.56
16.28
15.15
13.61
11.99
10.45
9.05
7.89
7.15
7.09
7.88
9.45
11.47
13.32
14.38
14.13
12.41
9.50
5.94
2.39
-0.61
-2.87
-4.46
-5.63
-6.64
-7.64
-8.72
-9.93
-11.30
-12.82
-14.35
-15.64
-16.42
-16.52
-15.94
-14.82
-13.26
-11.19
-8.36
-4.52
0.33
5.91
11.62
16.74
20.61
22.61
22.27
19.28
13.68
6.09
-2.27
-9.77
-14.80
-16.31
-14.22
-9.41
-3.42
2.13
6.05
7.87
7.79
6.38
4.22
1.63
-1.31
-4.58
-7.97
-10.98
-12.89
-13.07
-11.19
-7.45
-2.33
3.59
9.94
16.54
23.32
30.04
36.16
40.91
43.54
43.60
41.15
36.83
31.72
27.03
23.76
22.39
22.70
23.84
24.74
24.53
23.04
20.71
18.46
17.14
17.08
17.97
19.00
19.22
17.96
15.07
10.90
6.13
1.55
-2.34
-5.31
-7.52
-9.24
-10.69
-11.94
-12.93
-13.60
-14.08
-14.64
-15.52
-16.78
-18.19
-19.42
-20.15
-20.31
-20.01
-19.46
-18.90
-18.43
-18.17
-18.17
-18.46
-18.90
-19.19
-18.95
-17.87
-15.98
-13.53
-10.98
-8.71
-6.83
-5.25
-3.69
-2.00
-0.18
1.55
2.92
3.70
3.80
3.34
2.51
1.58
0.85
0.51
0.69
1.38
2.38
3.38
3.99
3.86
2.76
0.63
-2.40
-5.99
-9.66
-12.79
-14.83
-15.41
-14.50
-12.46
-9.92
-7.59
-5.96
-5.17
-5.01
-5.14
-5.27
-5.24
-5.13
-4.98
-4.79
-4.44
-3.87
-3.07
-2.21
-1.48
-1.03
-0.83
-0.69
-0.40
0.15
0.90
1.70
2.35
2.66
2.59
2.13
1.41
0.63
0.01
-0.33
-0.38
-0.33
-0.44
-0.93
-1.92
-3.28
-4.85
-6.32
-7.52
-8.32
-8.78
-9.09
-9.59
-10.70
-12.70
-15.65
-19.14
-22.38
-24.39
-24.43
-22.22
-18.11
-12.89
-7.46
-2.60
1.32
4.27
6.43
8.02
9.14
9.84
10.12
10.03
9.75
9.49
9.45
9.73
10.31
11.09
11.93
12.67
13.15
13.26
12.92
12.12
10.94
9.50
7.97
6.48
5.08
3.79
2.59
1.48
0.45
-0.43
-1.12
-1.58
-1.84
-2.01
-2.29
-2.91
-4.01
-5.57
-7.38
-9.10
-10.40
-11.10
-11.23
-11.05
-10.99
-11.53
-13.08
-15.71
-19.13
-22.53
-24.89
-25.23
-23.09
-18.73
-13.00
-7.05
-1.81
2.21
5.03
6.95
8.28
9.26
9.95
10.48
10.97
11.56
12.31
13.14
13.87
14.33
14.44
14.29
14.02
13.80
13.73
13.83
14.03
14.21
14.20
13.82
13.00
11.73
10.18
8.56
7.13
6.00
5.16
4.48
3.79
2.99
2.10
1.23
0.53
0.07
-0.24
-0.59
-1.22
-2.29
-3.79
-5.51
-7.18
-8.46
-9.16
-9.23
-8.86
-8.48
-8.67
-9.96
-12.61
-16.40
-20.55
-23.90
-25.35
-24.20
-20.47
-14.86
-8.44
-2.34
2.69
6.30
8.58
9.85
10.59
11.21
12.01
13.08
14.28
15.39
16.17
16.54
16.54
16.39
16.26
16.24
16.30
16.34
16.25
16.00
15.59
15.04
14.30
13.25
11.69
9.50
6.66
3.31
-0.18
-3.40
-5.97
-7.70
-8.72
-9.40
-10.22
-11.50
-13.30
-15.34
-17.15
-18.34
-18.76
-18.57
-18.24
-18.29
-19.14
-20.92
-23.46
-26.32
-29.00
-31.02
-32.22
-32.71
-32.93
-33.55
-35.31
-38.64
-43.41
-48.69
-52.97
-54.52
-52.08
-45.35
-35.14
-23.07
-10.95
-0.13
8.78
16.00
22.22
28.18
34.48
41.32
48.58
55.86
62.59
68.35
73.05
77.06
81.04
85.57
90.76
96.05
100.48
103.03
103.04
100.41
95.34
88.08
78.68
67.09
53.46
38.45
23.21
9.10
-2.81
-12.17
-19.35
-25.11
-30.18
-34.88
-38.97
-41.97
-43.43
-43.22
-41.61
-39.18
-36.53
-34.07
-31.92
-29.95
-27.86
-25.49
-22.83
-20.12
-17.71
-15.91
-14.92
-14.74
-15.23
-16.14
-17.21
-18.10
-18.48
-18.07
-16.72
-14.51
-11.73
-8.80
-6.12
-4.01
-2.56
-1.71
-1.27
-1.03
-0.79
-0.44
0.04
0.67
1.39
2.19
2.99
3.73
4.32
4.69
4.76
4.52
4.02
3.34
2.60
1.90
1.35
1.01
0.87
0.87
0.87
0.74
0.44
-0.02
-0.54
-0.97
-1.27
-1.45
-1.66
-2.05
-2.73
-3.73
-4.96
-6.23
-7.37
-8.23
-8.80
-9.09
-9.15
-9.02
-8.78
-8.62
-8.87
-9.89
-11.87
-14.69
-17.83
-20.53
-21.93
-21.49
-19.07
-15.03
-10.04
-4.91
-0.37
3.14
5.46
6.70
7.10
6.92
6.39
5.70
5.04
4.53
4.28
4.35
4.74
5.38
6.17
6.97
7.67
8.17
8.44
8.51
8.49
8.51
8.56
8.59
8.47
8.09
7.48
6.77
6.12
5.66
5.39
5.26
5.16
5.01
4.77
4.42
3.91
3.27
2.55
1.84
1.23
0.78
0.46
0.22
0.01
-0.23
-0.56
-1.17
-2.27
-4.07
-6.51
-9.21
-11.51
-12.67
-12.25
-10.28
-7.29
-4.10
-1.48
0.16
0.74
0.49
-0.26
-1.25
-2.33
-3.36
-4.22
-4.79
-5.00
-4.86
-4.49
-4.02
-3.55
-3.05
-2.46
-1.73
-0.87
0.01
0.82
1.54
2.20
2.90
3.69
4.47
5.05
5.22
4.87
4.06
3.03
2.13
1.64
1.71
2.31
3.26
4.29
5.15
5.67
5.79
5.54
5.00
4.25
3.41
2.52
1.56
0.35
-1.33
-3.69
-6.69
-9.95
-12.84
-14.63
-14.82
-13.38
-10.73
-7.57
-4.59
-2.24
-0.59
0.54
1.45
2.34
3.26
4.11
4.70
4.90
4.66
4.08
3.25
2.27
1.19
0.01
-1.14
-2.07
-2.49
-2.22
-1.22
0.22
1.64
2.53
2.56
1.73
0.35
-1.11
-2.24
-2.80
-2.86
-2.65
-2.48
-2.59
-3.05
-3.85
-4.86
-5.93
-6.91
-7.73
-8.39
-9.05
-10.01
-11.65
-14.29
-17.97
-22.37
-26.81
-30.39
-32.36
-32.29
-30.25
-26.83
-22.90
-19.33
-16.76
-15.50
-15.53
-16.67
-18.77
-21.76
-25.65
-30.33
-35.45
-40.38
-44.36
-46.68
-47.02
-45.38
-42.15
-37.95
-33.33
-28.65
-23.89
-18.78
-12.90
-6.15
1.04
7.60
12.18
13.84
12.56
9.53
6.82
6.57
10.28
18.38
30.23
44.59
60.01
75.08
88.52
99.12
105.89
108.30
106.57
101.68
95.10
88.33
82.31
77.21
72.56
67.68
62.22
56.34
50.64
45.58
41.23
37.14
32.70
27.63
22.15
16.96
12.62
9.21
6.21
2.83
-1.41
-6.36
-11.31
-15.45
-18.30
-20.02
-21.09
-22.00
-22.87
-23.35
-22.83
-20.85
-17.36
-12.97
-8.69
-5.63
-4.58
-5.70
-8.44
-11.83
-14.79
-16.56
-16.99
-16.39
-15.40
-14.57
-14.31
-14.58
-15.21
-15.92
-16.48
-16.77
-16.77
-16.43
-15.66
-14.43
-12.76
-10.88
-9.20
-8.25
-8.52
-10.21
-13.15
-16.78
-20.28
-22.77
-23.69
-22.80
-20.31
-16.69
-12.51
-8.34
-4.58
-1.52
0.69
2.02
2.52
2.36
1.73
0.83
-0.26
-1.51
-2.79
-3.93
-4.61
-4.50
-3.47
-1.60
0.79
3.24
5.41
7.07
8.15
8.62
8.49
7.79
6.68
5.46
4.53
4.24
4.80
6.15
8.08
10.17
12.10
13.58
14.46
14.68
14.29
13.38
12.11
10.70
9.31
8.04
6.84
5.52
3.80
1.41
-1.74
-5.51
-9.50
-13.17
-15.98
-17.68
-18.20
-17.79
-16.77
-15.48
-14.14
-12.92
-11.95
-11.36
-11.26
-11.60
-12.19
-12.67
-12.70
-12.05
-10.82
-9.30
-7.91
-6.97
-6.58
-6.58
-6.65
-6.48
-5.86
-4.82
-3.52
-2.26
-1.25
-0.59
-0.16
0.24
0.83
1.66
2.58
3.28
3.54
3.24
2.49
1.51
0.52
-0.35
-1.04
-1.51
-1.75
-1.74
-1.66
-1.83
-2.68
-4.54
-7.41
-10.88
-14.17
-16.53
-17.35
-16.51
-14.29
-11.24
-7.94
-4.87
-2.28
-0.21
1.34
2.45
3.15
3.50
3.62
3.64
3.71
3.94
4.38
4.97
5.62
6.24
6.69
6.86
6.69
6.19
5.48
4.78
4.27
3.97
3.76
3.40
2.75
1.80
0.71
-0.35
-1.37
-2.54
-4.12
-6.19
-8.55
-10.71
-12.18
-12.60
-11.95
-10.53
-8.80
-7.36
-6.75
-7.44
-9.60
-12.93
-16.63
-19.65
-20.93
-19.92
-16.74
-12.09
-6.99
-2.35
1.28
3.77
5.31
6.22
6.81
7.31
7.81
8.34
8.94
9.65
10.55
11.65
12.90
14.13
15.14
15.76
15.96
15.84
15.57
15.29
15.04
14.77
14.33
13.60
12.51
11.08
9.44
7.83
6.51
5.71
5.44
5.51
5.55
5.21
4.27
2.84
1.27
-0.02
-0.68
-0.58
0.21
1.41
2.60
3.27
3.00
1.52
-1.12
-4.51
-7.93
-10.63
-12.07
-12.04
-10.76
-8.66
-6.29
-4.04
-2.18
-0.79
0.12
0.65
0.87
0.87
0.72
0.46
0.16
-0.11
-0.24
-0.17
0.11
0.52
0.87
1.04
0.93
0.64
0.33
0.21
0.43
0.96
1.64
2.21
2.47
2.36
2.01
1.64
1.49
1.65
2.05
2.52
2.87
2.95
2.70
2.15
1.41
0.67
0.19
0.21
0.84
1.94
3.16
4.00
4.01
3.00
1.04
-1.48
-4.08
-6.26
-7.65
-8.00
-7.27
-5.63
-3.42
-1.13
0.80
2.05
2.54
2.41
1.92
1.32
0.78
0.32
-0.10
-0.53
-0.98
-1.38
-1.65
-1.76
-1.73
-1.61
-1.45
-1.26
-0.97
-0.51
0.12
0.83
1.41
1.65
1.44
0.86
0.10
-0.54
-0.89
-0.91
-0.75
-0.59
-0.55
-0.65
-0.88
-1.16
-1.43
-1.64
-1.66
-1.36
-0.57
0.71
2.26
3.62
4.22
3.66
1.90
-0.68
-3.36
-5.45
-6.43
-6.22
-5.05
-3.33
-1.44
0.33
1.88
3.09
3.88
4.21
4.11
3.72
3.26
2.91
2.70
2.51
2.19
1.61
0.86
0.10
-0.40
-0.52
-0.27
0.19
0.66
1.00
1.22
1.42
1.70
2.05
2.33
2.42
2.17
1.63
1.03
0.61
0.60
1.07
1.88
2.76
3.45
3.73
3.55
3.01
2.27
1.59
1.19
1.24
1.78
2.59
3.26
3.27
2.21
-0.02
-3.05
-6.22
-8.76
-10.12
-10.13
-9.03
-7.33
-5.50
-3.95
-2.88
-2.29
-2.14
-2.40
-3.02
-3.94
-5.06
-6.21
-7.24
-8.05
-8.61
-9.01
-9.37
-9.79
-10.33
-11.00
-11.85
-12.93
-14.34
-16.16
-18.37
-20.87
-23.51
-26.15
-28.83
-31.73
-35.06
-39.03
-43.71
-49.01
-54.68
-60.38
-65.85
-71.03
-76.14
-81.64
-88.10
-95.89
-105.07
-115.31
-126.04
-136.74
-147.16
-157.39
-167.84
-179.16
-192.16
-207.66
-226.14
-247.13
-268.86
-288.36
-302.14
-307.41
-303.11
-290.20
-271.22
-249.16
-226.42
-204.36
-183.49
-163.95
-146.04
-130.15
-116.54
-105.02
-94.96
-85.50
-76.08
-66.62
-57.38
-48.90
-41.52
-35.27
-30.00
-25.38
-21.16
-17.18
-13.37
-9.70
-6.19
-2.92
-0.01
2.46
4.51
6.30
8.06
9.97
12.04
14.07
15.85
17.34
18.69
20.26
22.41
25.33
28.91
32.80
36.55
39.79
42.42
44.58
46.71
49.32
52.82
57.40
63.01
69.50
76.84
85.16
94.75
105.83
118.34
131.87
145.77
159.45
172.65
185.55
198.70
212.86
228.86
247.57
269.79
295.93
325.35
355.84
383.59
404.03
413.30
409.72
394.47
371.10
344.08
317.11
292.14
269.43
248.36
228.38
209.52
192.17
176.61
162.64
149.60
136.72
123.65
110.54
98.03
86.86
77.48
69.83
63.42
57.46
51.31
44.69
37.76
31.06
25.21
20.61
17.27
14.83
12.70
10.33
7.42
4.03
0.48
-2.74
-5.24
-6.82
-7.51
-7.59
-7.46
-7.55
-8.24
-9.75
-12.06
-14.94
-17.93
-20.49
-22.11
-22.54
-21.74
-20.00
-17.77
-15.52
-13.65
-12.37
-11.68
-11.44
-11.40
-11.26
-10.85
-10.12
-9.15
-8.15
-7.31
-6.77
-6.56
-6.59
-6.77
-6.95
-7.04
-6.99
-6.74
-6.27
-5.61
-4.84
-4.08
-3.47
-3.12
-3.09
-3.35
-3.81
-4.37
-4.89
-5.24
-5.32
-5.10
-4.67
-4.21
-3.97
-4.09
-4.59
-5.33
-6.10
-6.76
-7.25
-7.60
-7.84
-7.91
-7.72
-7.27
-6.73
-6.38
-6.59
-7.59
-9.32
-11.42
-13.38
-14.69
-15.09
-14.61
-13.52
-12.18
-10.88
-9.78
-8.90
-8.20
-7.67
-7.32
-7.20
-7.28
-7.49
-7.72
-7.89
-7.97
-8.02
-8.14
-8.39
-8.77
-9.25
-9.73
-10.08
-10.21
-10.04
-9.59
-8.94
-8.26
-7.73
-7.46
-7.45
-7.57
-7.70
-7.76
-7.77
-7.81
-7.95
-8.19
-8.41
-8.49
-8.29
-7.85
-7.25
-6.69
-6.30
-6.20
-6.37
-6.68
-6.98
-7.06
-6.74
-5.91
-4.58
-2.97
-1.46
-0.56
-0.69
-2.06
-4.54
-7.62
-10.62
-12.86
-13.94
-13.81
-12.74
-11.17
-9.54
-8.14
-7.13
-6.49
-6.19
-6.20
-6.46
-6.94
-7.56
-8.25
-8.88
-9.34
-9.56
-9.47
-9.10
-8.54
-7.89
-7.26
-6.68
-6.19
-5.80
-5.60
-5.70
-6.14
-6.86
-7.65
-8.19
-8.28
-7.90
-7.21
-6.55
-6.11
-5.97
-5.96
-5.92
-5.70
-5.35
-4.99
-4.72
-4.57
-4.52
-4.55
-4.67
-4.91
-5.22
-5.47
-5.44
-4.98
-4.10
-3.04
-2.23
-2.13
-3.03
-4.90
-7.40
-9.95
-11.96
-13.05
-13.14
-12.44
-11.30
-10.07
-8.90
-7.81
-6.73
-5.69
-4.77
-4.15
-3.91
-4.05
-4.44
-4.93
-5.33
-5.58
-5.64
-5.55
-5.42
-5.34
-5.37
-5.48
-5.51
-5.27
-4.65
-3.68
-2.60
-1.66
-1.06
-0.82
-0.81
-0.87
-0.88
-0.87
-0.97
-1.30
-1.89
-2.65
-3.40
-3.94
-4.16
-4.07
-3.77
-3.40
-3.08
-2.85
-2.75
-2.85
-3.29
-4.21
-5.71
-7.64
-9.66
-11.32
-12.26
-12.38
-11.90
-11.19
-10.57
-10.19
-10.03
-9.97
-9.94
-10.00
-10.28
-10.90
-11.88
-13.08
-14.26
-15.13
-15.46
-15.18
-14.34
-13.13
-11.72
-10.20
-8.56
-6.77
-4.92
-3.26
-2.09
-1.57
-1.66
-1.99
-2.18
-1.93
-1.28
-0.47
0.18
0.41
0.20
-0.34
-1.03
-1.71
-2.24
-2.46
-2.22
-1.44
-0.18
1.33
2.67
3.42
3.26
2.19
0.48
-1.32
-2.65
-3.12
-2.67
-1.60
-0.35
0.66
1.25
1.49
1.60
1.75
1.96
2.10
2.04
1.73
1.31
0.97
0.85
0.96
1.15
1.23
1.03
0.53
-0.17
-0.89
-1.46
-1.74
-1.72
-1.48
-1.19
-0.98
-0.98
-1.21
-1.58
-1.97
-2.26
-2.39
-2.40
-2.39
-2.45
-2.67
-2.98
-3.34
-3.64
-3.79
-3.79
-3.60
-3.21
-2.58
-1.75
-0.88
-0.26
-0.26
-1.08
-2.65
-4.57
-6.29
-7.30
-7.38
-6.61
-5.28
-3.71
-2.10
-0.59
0.75
1.77
2.35
2.41
2.05
1.42
0.75
0.14
-0.40
-0.90
-1.38
-1.81
-2.10
-2.20
-2.11
-1.92
-1.75
-1.67
-1.72
-1.86
-2.04
-2.23
-2.40
-2.56
-2.71
-2.85
-2.96
-3.02
-2.99
-2.84
-2.56
-2.18
-1.75
-1.32
-0.94
-0.66
-0.51
-0.56
-0.87
-1.39
-2.00
-2.53
-2.79
-2.66
-2.16
-1.43
-0.81
-0.66
-1.29
-2.78
-4.96
-7.31
-9.23
-10.19
-9.91
-8.51
-6.41
-4.14
-2.16
-0.74
0.07
0.36
0.25
-0.09
-0.52
-0.89
-1.13
-1.20
-1.16
-1.08
-0.99
-0.89
-0.75
-0.57
-0.39
-0.29
-0.28
-0.31
-0.30
-0.13
0.23
0.74
1.29
1.79
2.11
2.17
1.90
1.29
0.42
-0.58
-1.48
-2.12
-2.41
-2.41
-2.25
-2.12
-2.18
-2.49
-3.01
-3.61
-4.13
-4.42
-4.44
-4.24
-3.92
-3.52
-3.03
-2.45
-1.84
-1.40
-1.42
-2.08
-3.32
-4.74
-5.80
-6.04
-5.37
-4.05
-2.59
-1.43
-0.77
-0.49
-0.34
-0.14
0.15
0.34
0.26
-0.18
-0.84
-1.46
-1.72
-1.46
-0.76
0.12
0.84
1.19
1.14
0.89
0.69
0.70
0.97
1.36
1.75
2.05
2.27
2.45
2.56
2.54
2.28
1.76
1.03
0.19
-0.69
-1.56
-2.41
-3.15
-3.67
-3.83
-3.62
-3.16
-2.74
-2.65
-3.06
-3.92
-5.03
-6.04
-6.68
-6.75
-6.19
-5.06
-3.55
-1.94
-0.59
0.11
-0.10
-1.26
-3.08
-5.02
-6.51
-7.07
-6.55
-5.16
-3.33
-1.50
0.00
1.05
1.66
1.88
1.75
1.30
0.60
-0.19
-0.85
-1.18
-1.13
-0.81
-0.41
-0.14
-0.09
-0.26
-0.52
-0.73
-0.81
-0.74
-0.59
-0.46
-0.45
-0.63
-0.98
-1.42
-1.84
-2.07
-2.04
-1.77
-1.38
-1.06
-0.99
-1.26
-1.85
-2.60
-3.27
-3.63
-3.53
-2.99
-2.19
-1.38
-0.78
-0.49
-0.47
-0.67
-1.01
-1.39
-1.71
-1.82
-1.57
-0.96
-0.19
0.32
0.18
-0.80
-2.39
-4.04
-5.14
-5.29
-4.52
-3.18
-1.81
-0.80
-0.29
-0.19
-0.33
-0.53
-0.70
-0.81
-0.82
-0.71
-0.48
-0.14
0.22
0.52
0.69
0.71
0.63
0.57
0.63
0.87
1.34
1.99
2.70
3.24
3.42
3.08
2.24
1.08
-0.11
-1.05
-1.61
-1.79
-1.75
-1.65
-1.61
-1.64
-1.63
-1.50
-1.15
-0.62
0.04
0.71
1.26
1.52
1.36
0.75
-0.24
-1.39
-2.36
-2.84
-2.68
-1.95
-0.98
-0.24
-0.20
-1.10
-2.84
-4.97
-6.90
-8.12
-8.35
-7.64
-6.31
-4.72
-3.21
-1.98
-1.11
-0.60
-0.42
-0.53
-0.82
-1.13
-1.33
-1.35
-1.19
-0.94
-0.65
-0.37
-0.08
0.17
0.32
0.29
0.07
-0.26
-0.51
-0.52
-0.23
0.26
0.74
1.03
1.02
0.78
0.46
0.19
0.01
-0.13
-0.31
-0.56
-0.86
-1.15
-1.30
-1.26
-1.00
-0.56
0.00
0.57
1.06
1.34
1.34
0.99
0.31
-0.59
-1.56
-2.39
-2.86
-2.82
-2.25
-1.29
-0.29
0.32
0.11
-1.07
-3.04
-5.26
-7.03
-7.80
-7.36
-5.88
-3.85
-1.80
-0.12
1.06
1.79
2.20
2.39
2.40
2.24
1.99
1.74
1.61
1.64
1.79
1.93
1.90
1.59
1.00
0.28
-0.36
-0.70
-0.64
-0.23
0.30
0.68
0.68
0.25
-0.43
-1.07
-1.36
-1.18
-0.62
0.05
0.57
0.81
0.78
0.59
0.37
0.16
-0.04
-0.29
-0.59
-0.88
-1.10
-1.19
-1.13
-0.97
-0.73
-0.47
-0.16
0.21
0.59
0.85
0.79
0.20
-1.00
-2.67
-4.41
-5.79
-6.43
-6.21
-5.29
-4.02
-2.71
-1.56
-0.62
0.20
0.92
1.54
1.95
2.09
1.94
1.59
1.16
0.83
0.70
0.75
0.86
0.89
0.75
0.48
0.19
0.08
0.18
0.45
0.70
0.77
0.60
0.28
-0.03
-0.19
-0.19
-0.11
-0.09
-0.23
-0.57
-1.04
-1.56
-1.99
-2.23
-2.20
-1.88
-1.30
-0.55
0.25
0.95
1.43
1.58
1.34
0.74
-0.07
-0.88
-1.42
-1.50
-1.00
0.03
1.27
2.24
2.39
1.36
-0.79
-3.59
-6.23
-7.93
-8.24
-7.19
-5.23
-3.01
-1.01
0.53
1.56
2.15
2.31
2.06
1.43
0.62
-0.15
-0.62
-0.70
-0.47
-0.10
0.20
0.28
0.14
-0.11
-0.34
-0.42
-0.28
0.04
0.45
0.85
1.16
1.35
1.45
1.47
1.40
1.19
0.79
0.21
-0.45
-1.08
-1.58
-1.93
-2.17
-2.35
-2.49
-2.53
-2.40
-2.11
-1.70
-1.33
-1.10
-1.02
-0.98
-0.85
-0.53
-0.06
0.39
0.62
0.53
0.20
-0.13
-0.12
0.45
1.56
2.92
4.06
4.42
3.65
1.74
-0.93
-3.76
-6.11
-7.46
-7.66
-6.79
-5.17
-3.17
-1.18
0.52
1.68
2.19
2.04
1.36
0.40
-0.61
-1.41
-1.90
-2.03
-1.88
-1.58
-1.25
-0.99
-0.84
-0.77
-0.70
-0.55
-0.29
0.07
0.46
0.82
1.09
1.20
1.12
0.83
0.38
-0.12
-0.54
-0.82
-0.93
-0.92
-0.87
-0.83
-0.80
-0.76
-0.73
-0.73
-0.77
-0.84
-0.88
-0.86
-0.81
-0.75
-0.73
-0.73
-0.68
-0.46
-0.07
0.40
0.77
0.87
0.65
0.28
0.05
0.24
0.97
2.04
2.97
3.25
2.51
0.77
-1.58
-3.86
-5.51
-6.16
-5.82
-4.73
-3.21
-1.53
0.11
1.57
2.69
3.35
3.50
3.21
2.62
1.93
1.20
0.49
-0.23
-0.92
-1.51
-1.92
-2.13
-2.15
-2.07
-1.93
-1.70
-1.33
-0.82
-0.20
0.41
0.91
1.27
1.50
1.62
1.61
1.47
1.19
0.89
0.71
0.80
1.16
1.65
2.07
2.22
2.06
1.71
1.41
1.34
1.57
2.00
2.45
2.75
2.83
2.73
2.59
2.49
2.50
2.58
2.72
2.93
3.30
3.86
4.54
5.00
4.80
3.56
1.21
-1.85
-4.90
-7.15
-8.08
-7.61
-6.04
-3.90
-1.71
0.14
1.45
2.14
2.25
1.93
1.32
0.64
0.02
-0.45
-0.78
-0.99
-1.15
-1.35
-1.64
-2.06
-2.56
-3.01
-3.21
-3.04
-2.48
-1.69
-0.90
-0.30
0.02
0.09
-0.01
-0.18
-0.36
-0.49
-0.55
-0.52
-0.42
-0.28
-0.14
-0.07
-0.09
-0.18
-0.29
-0.33
-0.19
0.18
0.74
1.33
1.72
1.74
1.33
0.63
-0.10
-0.62
-0.79
-0.58
-0.07
0.66
1.46
2.08
2.19
1.42
-0.37
-2.97
-5.80
-8.10
-9.27
-9.09
-7.81
-5.94
-4.00
-2.33
-1.03
-0.03
0.72
1.25
1.55
1.60
1.50
1.34
1.27
1.34
1.53
1.75
1.86
1.78
1.50
1.12
0.76
0.55
0.50
0.54
0.57
0.52
0.43
0.39
0.53
0.87
1.31
1.64
1.66
1.26
0.52
-0.33
-1.02
-1.37
-1.37
-1.12
-0.80
-0.53
-0.35
-0.21
-0.01
0.33
0.85
1.56
2.45
3.43
4.31
4.81
4.59
3.44
1.40
-1.17
-3.69
-5.58
-6.50
-6.38
-5.49
-4.18
-2.77
-1.47
-0.37
0.50
1.14
1.52
1.65
1.57
1.31
0.99
0.67
0.42
0.25
0.11
-0.08
-0.39
-0.83
-1.31
-1.64
-1.64
-1.22
-0.45
0.44
1.21
1.65
1.72
1.52
1.19
0.86
0.61
0.44
0.40
0.53
0.91
1.51
2.18
2.71
2.89
2.59
1.92
1.10
0.40
0.08
0.24
0.84
1.70
2.48
2.82
2.36
0.94
-1.33
-4.01
-6.52
-8.31
-9.06
-8.74
-7.62
-6.03
-4.36
-2.87
-1.76
-1.11
-0.92
-1.08
-1.43
-1.77
-1.97
-1.99
-1.85
-1.61
-1.30
-0.96
-0.58
-0.15
0.33
0.80
1.21
1.46
1.51
1.38
1.19
1.14
1.37
1.91
2.61
3.20
3.47
3.31
2.85
2.32
1.97
1.88
1.99
2.10
2.00
1.59
0.94
0.22
-0.37
-0.70
-0.74
-0.56
-0.22
0.25
0.84
1.43
1.76
1.55
0.59
-1.01
-2.87
-4.40
-5.15
-4.94
-3.98
-2.68
-1.47
-0.59
-0.09
0.12
0.14
0.03
-0.16
-0.40
-0.60
-0.68
-0.59
-0.37
-0.05
0.29
0.61
0.87
1.12
1.42
1.86
2.46
3.15
3.80
4.25
4.39
4.19
3.70
3.06
2.44
1.98
1.76
1.76
1.85
1.82
1.46
0.65
-0.50
-1.75
-2.74
-3.25
-3.24
-2.92
-2.55
-2.41
-2.54
-2.88
-3.24
-3.45
-3.41
-3.06
-2.41
-1.46
-0.37
0.59
1.03
0.64
-0.67
-2.62
-4.62
-6.02
-6.37
-5.61
-4.09
-2.30
-0.71
0.42
1.11
1.46
1.60
1.59
1.40
1.04
0.58
0.14
-0.12
-0.11
0.23
0.79
1.47
2.12
2.66
3.09
3.44
3.77
4.12
4.48
4.83
5.13
5.32
5.35
5.18
4.77
4.15
3.37
2.49
1.61
0.83
0.21
-0.18
-0.33
-0.28
-0.15
-0.08
-0.20
-0.55
-1.03
-1.51
-1.78
-1.71
-1.33
-0.75
-0.20
0.07
-0.13
-0.87
-2.02
-3.24
-4.16
-4.42
-3.89
-2.66
-1.04
0.56
1.79
2.38
2.21
1.32
-0.08
-1.67
-3.06
-3.93
-4.16
-3.86
-3.26
-2.61
-2.04
-1.54
-1.03
-0.46
0.11
0.63
1.01
1.28
1.50
1.74
2.02
2.30
2.51
2.63
2.65
2.56
2.41
2.24
2.11
2.10
2.26
2.54
2.77
2.75
2.34
1.59
0.71
0.06
-0.10
0.29
1.00
1.68
1.94
1.61
0.76
-0.38
-1.49
-2.30
-2.64
-2.45
-1.74
-0.68
0.44
1.14
0.97
-0.28
-2.44
-4.85
-6.70
-7.25
-6.26
-4.02
-1.26
1.20
2.78
3.31
3.00
2.26
1.46
0.84
0.46
0.28
0.24
0.31
0.48
0.75
1.04
1.24
1.24
0.96
0.47
-0.07
-0.42
-0.44
-0.11
0.43
0.92
1.17
1.05
0.63
0.04
-0.52
-0.97
-1.29
-1.52
-1.66
-1.71
-1.65
-1.51
-1.36
-1.27
-1.24
-1.20
-1.05
-0.70
-0.22
0.24
0.50
0.45
0.14
-0.29
-0.69
-1.01
-1.26
-1.50
-1.75
-1.88
-1.74
-1.20
-0.31
0.67
1.34
1.29
0.31
-1.48
-3.69
-5.73
-7.09
-7.47
-6.85
-5.48
-3.73
-1.97
-0.48
0.58
1.17
1.33
1.19
0.90
0.63
0.48
0.51
0.72
1.06
1.46
1.88
2.25
2.54
2.71
2.79
2.82
2.85
2.90
2.90
2.75
2.35
1.72
1.00
0.38
0.00
-0.13
-0.15
-0.26
-0.57
-1.07
-1.62
-2.05
-2.22
-2.13
-1.85
-1.49
-1.13
-0.84
-0.61
-0.42
-0.25
-0.09
0.10
0.31
0.62
1.07
1.72
2.49
3.13
3.33
2.76
1.36
-0.66
-2.80
-4.48
-5.32
-5.17
-4.22
-2.80
-1.31
-0.02
0.91
1.47
1.74
1.84
1.87
1.86
1.80
1.62
1.33
0.98
0.72
0.63
0.74
0.94
1.09
1.11
1.01
0.93
0.97
1.19
1.54
1.87
2.04
1.96
1.65
1.17
0.67
0.25
-0.03
-0.16
-0.17
-0.12
-0.06
-0.03
-0.02
0.01
0.09
0.25
0.50
0.83
1.15
1.38
1.41
1.18
0.68
-0.02
-0.77
-1.39
-1.68
-1.51
-0.86
0.13
1.09
1.54
1.03
-0.61
-3.13
-5.89
-8.10
-9.09
-8.72
-7.23
-5.16
-3.03
-1.14
0.39
1.57
2.40
2.84
2.87
2.56
2.10
1.71
1.56
1.65
1.85
1.99
1.97
1.72
1.30
0.82
0.41
0.19
0.23
0.53
1.02
1.56
1.98
2.20
2.16
1.90
1.45
0.92
0.37
-0.11
-0.47
-0.70
-0.79
-0.83
-0.89
-1.04
-1.31
-1.65
-1.99
-2.21
-2.22
-1.95
-1.43
-0.79
-0.23
0.05
-0.04
-0.41
-0.82
-1.01
-0.79
-0.16
0.78
1.82
2.76
3.34
3.34
2.59
1.06
-1.03
-3.23
-4.98
-5.79
-5.46
-4.17
-2.37
-0.57
0.82
1.59
1.76
1.46
0.93
0.41
0.06
-0.05
0.03
0.12
0.07
-0.27
-0.90
-1.74
-2.60
-3.30
-3.66
-3.59
-3.10
-2.29
-1.32
-0.40
0.31
0.74
0.93
0.99
1.05
1.20
1.43
1.69
1.87
1.93
1.89
1.83
1.82
1.88
1.93
1.89
1.68
1.32
0.92
0.64
0.59
0.78
1.15
1.63
2.16
2.71
3.18
3.38
3.03
1.90
-0.03
-2.47
-4.89
-6.74
-7.61
-7.45
-6.46
-4.98
-3.35
-1.82
-0.49
0.57
1.35
1.83
2.03
1.98
1.76
1.48
1.23
1.09
1.08
1.17
1.24
1.22
1.07
0.87
0.72
0.72
0.89
1.16
1.45
1.67
1.84
1.98
2.06
2.04
1.81
1.30
0.52
-0.42
-1.33
-2.01
-2.27
-2.05
-1.42
-0.58
0.18
0.60
0.54
0.07
-0.62
-1.21
-1.47
-1.24
-0.48
0.72
2.12
3.39
4.09
3.83
2.46
0.21
-2.34
-4.46
-5.56
-5.42
-4.20
-2.39
-0.48
1.14
2.28
2.90
3.03
2.77
2.24
1.57
0.91
0.34
-0.12
-0.47
-0.73
-0.87
-0.92
-0.91
-0.92
-1.02
-1.20
-1.36
-1.33
-1.03
-0.48
0.16
0.68
0.88
0.68
0.16
-0.46
-0.92
-1.03
-0.73
-0.20
0.32
0.54
0.37
-0.12
-0.64
-0.91
-0.73
-0.11
0.77
1.67
2.34
2.66
2.63
2.33
1.91
1.58
1.53
1.89
2.71
3.86
5.04
5.86
5.92
5.05
3.32
1.16
-0.84
-2.15
-2.48
-1.95
-0.93
0.16
1.02
1.58
1.96
2.28
2.59
2.89
3.20
3.56
4.04
4.63
5.19
5.51
5.40
4.82
3.91
2.90
1.98
1.27
0.76
0.37
0.03
-0.29
-0.62
-0.96
-1.29
-1.55
-1.71
-1.77
-1.75
-1.72
-1.71
-1.75
-1.83
-1.91
-1.96
-1.91
-1.66
-1.15
-0.37
0.56
1.39
1.92
2.00
1.71
1.29
0.99
1.02
1.40
2.02
2.67
3.11
3.11
2.49
1.18
-0.67
-2.67
-4.36
-5.34
-5.44
-4.78
-3.63
-2.30
-1.01
0.15
1.11
1.82
2.21
2.23
1.87
1.26
0.56
-0.05
-0.46
-0.62
-0.61
-0.56
-0.65
-1.04
-1.73
-2.59
-3.36
-3.79
-3.75
-3.27
-2.55
-1.84
-1.34
-1.19
-1.41
-1.89
-2.46
-2.91
-3.09
-2.98
-2.76
-2.72
-3.10
-3.89
-4.84
-5.47
-5.36
-4.31
-2.47
-0.25
1.80
3.18
3.54
2.78
0.98
-1.57
-4.42
-7.03
-8.86
-9.58
-9.10
-7.61
-5.49
-3.14
-0.91
1.00
2.47
3.47
4.03
4.21
4.15
3.97
3.80
3.72
3.72
3.75
3.66
3.30
2.59
1.55
0.36
-0.74
-1.53
-1.89
-1.83
-1.50
-1.08
-0.71
-0.42
-0.22
-0.06
0.00
-0.07
-0.29
-0.58
-0.80
-0.81
-0.55
-0.10
0.32
0.47
0.19
-0.50
-1.36
-2.08
-2.34
-2.02
-1.18
-0.05
0.98
1.48
1.12
-0.20
-2.32
-4.82
-7.12
-8.69
-9.25
-8.82
-7.66
-6.15
-4.64
-3.34
-2.37
-1.71
-1.33
-1.12
-0.98
-0.83
-0.66
-0.57
-0.69
-1.10
-1.78
-2.53
-3.16
-3.49
-3.48
-3.22
-2.82
-2.39
-1.95
-1.51
-1.11
-0.80
-0.65
-0.67
-0.75
-0.79
-0.67
-0.36
0.11
0.75
1.58
2.66
3.96
5.30
6.37
6.89
6.77
6.19
5.53
5.24
5.59
6.62
8.12
9.73
10.97
11.39
10.63
8.53
5.26
1.40
-2.24
-4.82
-5.85
-5.36
-3.82
-2.03
-0.67
-0.11
-0.34
-1.09
-2.00
-2.84
-3.52
-4.04
-4.39
-4.53
-4.37
-3.94
-3.36
-2.87
-2.66
-2.78
-3.10
-3.39
-3.43
-3.13
-2.54
-1.83
-1.13
-0.52
-0.05
0.24
0.29
0.09
-0.31
-0.74
-0.98
-0.84
-0.28
0.57
1.47
2.16
2.50
2.51
2.35
2.23
2.35
2.82
3.66
4.72
5.71
6.30
6.17
5.18
3.40
1.16
-1.07
-2.82
-3.78
-3.85
-3.19
-2.05
-0.77
0.39
1.27
1.89
2.34
2.73
3.11
3.42
3.48
3.16
2.46
1.52
0.63
0.04
-0.17
-0.12
-0.04
-0.12
-0.39
-0.66
-0.71
-0.36
0.36
1.25
2.00
2.37
2.25
1.75
1.11
0.57
0.33
0.43
0.79
1.21
1.48
1.48
1.20
0.76
0.39
0.36
0.87
1.94
3.39
4.82
5.77
5.77
4.60
2.37
-0.51
-3.39
-5.64
-6.82
-6.79
-5.72
-4.02
-2.16
-0.53
0.58
1.08
1.04
0.61
0.01
-0.56
-0.96
-1.13
-1.09
-0.94
-0.81
-0.77
-0.83
-0.91
-0.88
-0.59
0.01
0.91
1.96
2.96
3.69
3.99
3.86
3.40
2.80
2.26
1.86
1.57
1.29
0.93
0.49
0.13
-0.01
0.16
0.53
0.86
0.83
0.29
-0.68
-1.79
-2.63
-2.87
-2.37
-1.20
0.33
1.81
2.75
2.80
1.79
-0.12
-2.52
-4.83
-6.52
-7.29
-7.08
-6.11
-4.72
-3.25
-1.95
-0.98
-0.41
-0.23
-0.35
-0.63
-0.90
-1.00
-0.87
-0.52
-0.02
0.48
0.83
0.91
0.69
0.24
-0.25
-0.55
-0.46
0.04
0.85
1.72
2.34
2.54
2.24
1.57
0.74
0.01
-0.44
-0.54
-0.40
-0.19
-0.05
-0.05
-0.11
-0.12
0.06
0.46
1.03
1.61
1.99
2.05
1.75
1.21
0.63
0.28
0.32
0.83
1.73
2.80
3.77
4.28
4.03
2.83
0.75
-1.82
-4.28
-6.01
-6.59
-5.99
-4.55
-2.80
-1.25
-0.17
0.41
0.64
0.66
0.61
0.51
0.35
0.12
-0.18
-0.50
-0.79
-1.00
-1.08
-1.04
-0.92
-0.77
-0.65
-0.55
-0.45
-0.28
0.01
0.43
0.96
1.54
2.09
2.56
2.84
2.87
2.60
2.05
1.29
0.44
-0.41
-1.20
-1.96
-2.76
-3.62
-4.54
-5.49
-6.39
-7.17
-7.76
-8.05
-7.93
-7.33
-6.26
-4.86
-3.41
-2.27
-1.79
-2.19
-3.51
-5.52
-7.83
-9.95
-11.45
-12.07
-11.77
-10.74
-9.27
-7.70
-6.28
-5.18
-4.47
-4.14
-4.13
-4.29
-4.49
-4.50
-4.05
-2.78
-0.40
3.23
7.90
13.00
17.69
21.13
22.70
22.28
20.22
17.25
14.26
12.09
11.22
11.72
13.22
15.06
16.54
17.23
17.09
16.49
15.96
15.93
16.51
17.49
18.51
19.21
19.40
19.05
18.25
17.17
16.10
15.37
15.35
16.38
18.63
22.01
26.14
30.37
33.76
35.38
34.44
30.68
24.52
17.05
9.69
3.68
-0.27
-2.22
-2.79
-2.81
-2.92
-3.49
-4.53
-5.96
-7.65
-9.47
-11.26
-12.81
-13.94
-14.56
-14.73
-14.67
-14.63
-14.78
-15.23
-15.89
-16.62
-17.23
-17.61
-17.73
-17.71
-17.71
-17.89
-18.29
-18.87
-19.58
-20.36
-21.26
-22.25
-23.23
-23.97
-24.15
-23.61
-22.38
-20.67
-18.80
-16.98
-15.22
-13.42
-11.47
-9.40
-7.37
-5.59
-4.19
-3.13
-2.29
-1.43
-0.37
0.94
2.45
3.98
5.27
6.04
6.09
5.38
4.05
2.41
0.87
-0.21
-0.64
-0.43
0.15
0.69
0.83
0.38
-0.61
-1.85
-3.01
-3.89
-4.47
-4.90
-5.39
-6.05
-6.82
-7.53
-7.98
-8.04
-7.73
-7.17
-6.52
-5.95
-5.50
-5.16
-4.81
-4.32
-3.62
-2.73
-1.81
-1.09
-0.74
-0.82
-1.23
-1.74
-2.15
-2.34
-2.32
-2.17
-2.01
-1.91
-1.86
-1.76
-1.49
-0.96
-0.12
0.94
1.95
2.50
2.14
0.56
-2.15
-5.50
-8.70
-10.87
-11.43
-10.26
-7.68
-4.30
-0.75
2.56
5.43
7.82
9.69
10.97
11.52
11.26
10.27
8.83
7.33
6.13
5.39
5.00
4.66
4.08
3.16
2.05
1.08
0.55
0.56
0.96
1.43
1.67
1.59
1.33
1.14
1.22
1.63
2.22
2.74
3.00
2.90
2.53
2.14
1.97
2.18
2.80
3.67
4.62
5.39
5.75
5.52
4.59
2.99
0.91
-1.30
-3.21
-4.40
-4.68
-4.08
-2.88
-1.43
-0.07
1.01
1.72
2.06
2.08
1.83
1.40
0.88
0.37
-0.05
-0.32
-0.39
-0.26
-0.03
0.16
0.15
-0.17
-0.71
-1.30
-1.68
-1.65
-1.20
-0.49
0.22
0.74
0.97
0.96
0.86
0.80
0.83
0.94
1.05
1.04
0.85
0.47
-0.02
-0.46
-0.67
-0.51
0.01
0.79
1.54
1.97
1.80
0.91
-0.62
-2.51
-4.30
-5.56
-5.91
-5.29
-3.89
-2.11
-0.41
0.84
1.45
1.43
0.90
0.02
-1.00
-1.99
-2.83
-3.44
-3.79
-3.88
-3.70
-3.32
-2.77
-2.24
-1.85
-1.76
-1.95
-2.30
-2.57
-2.55
-2.15
-1.44
-0.66
-0.04
0.29
0.36
0.32
0.36
0.58
0.97
1.42
1.76
1.84
1.62
1.23
0.92
0.99
1.60
2.74
4.18
5.62
6.74
7.32
7.22
6.36
4.79
2.64
0.23
-2.02
-3.65
-4.37
-4.17
-3.28
-2.12
-1.05
-0.31
0.07
0.17
0.11
-0.02
-0.15
-0.30
-0.47
-0.66
-0.86
-0.95
-0.85
-0.47
0.10
0.71
1.13
1.20
0.94
0.42
-0.20
-0.89
-1.75
-2.96
-4.63
-6.74
-8.98
-11.00
-12.42
-13.13
-13.21
-13.00
-12.92
-13.30
-14.26
-15.65
-17.10
-18.14
-18.40
-17.64
-15.83
-13.16
-9.95
-6.63
-3.60
-1.09
0.97
2.95
5.35
8.61
12.76
17.47
22.16
26.32
29.74
32.53
34.91
37.04
38.82
39.95
40.12
39.11
36.93
33.80
30.08
26.30
23.00
20.67
19.57
19.59
20.26
20.89
20.89
20.01
18.40
16.44
14.55
12.88
11.33
9.64
7.56
5.02
2.05
-1.28
-4.86
-8.57
-12.08
-14.86
-16.33
-16.09
-14.23
-11.35
-8.37
-6.10
-4.91
-4.66
-4.92
-5.25
-5.53
-5.95
-6.83
-8.45
-10.84
-13.77
-16.86
-19.66
-21.81
-23.07
-23.35
-22.65
-21.04
-18.67
-15.76
-12.58
-9.48
-6.79
-4.70
-3.25
-2.22
-1.31
-0.19
1.32
3.22
5.37
7.58
9.63
11.33
12.47
12.85
12.35
11.00
8.99
6.61
4.15
1.78
-0.51
-2.75
-4.96
-7.04
-8.75
-9.84
-10.18
-9.83
-8.97
-7.88
-6.76
-5.75
-4.97
-4.53
-4.59
-5.21
-6.36
-7.78
-9.14
-10.05
-10.27
-9.75
-8.65
-7.24
-5.83
-4.66
-3.86
-3.43
-3.20
-2.97
-2.60
-2.13
-1.83
-2.02
-2.92
-4.41
-6.05
-7.25
-7.53
-6.78
-5.28
-3.49
-1.84
-0.56
0.35
0.94
1.26
1.30
1.04
0.57
0.04
-0.37
-0.54
-0.44
-0.15
0.21
0.55
0.80
0.93
0.93
0.87
0.82
0.88
1.12
1.51
1.96
2.34
2.52
2.53
2.40
2.26
2.21
2.28
2.46
2.69
2.92
3.08
3.08
2.82
2.27
1.45
0.49
-0.38
-0.96
-1.10
-0.76
-0.04
0.91
1.89
2.68
3.04
2.78
1.73
-0.01
-2.17
-4.25
-5.78
-6.39
-6.06
-5.03
-3.69
-2.38
-1.28
-0.38
0.36
0.98
1.43
1.65
1.62
1.34
0.92
0.42
-0.13
-0.71
-1.30
-1.83
-2.19
-2.23
-1.86
-1.07
0.02
1.23
2.28
2.93
3.05
2.71
2.10
1.51
1.18
1.17
1.37
1.56
1.53
1.20
0.65
0.04
-0.42
-0.59
-0.47
-0.11
0.35
0.82
1.22
1.48
1.63
1.70
1.79
2.02
2.47
3.13
3.78
4.06
3.52
1.88
-0.80
-4.08
-7.21
-9.44
-10.26
-9.61
-7.82
-5.48
-3.18
-1.34
-0.16
0.42
0.54
0.44
0.27
0.17
0.17
0.28
0.49
0.78
1.19
1.70
2.24
2.69
2.89
2.76
2.35
1.85
1.47
1.39
1.60
1.93
2.16
2.10
1.71
1.09
0.43
-0.11
-0.44
-0.61
-0.66
-0.67
-0.65
-0.53
-0.31
0.04
0.46
0.81
0.98
0.91
0.63
0.26
0.01
0.07
0.50
1.23
2.09
2.78
3.01
2.51
1.17
-0.87
-3.26
-5.45
-6.90
-7.27
-6.56
-5.11
-3.44
-2.01
-1.12
-0.78
-0.80
-0.94
-0.97
-0.77
-0.32
0.27
0.83
1.18
1.23
1.02
0.64
0.23
-0.09
-0.31
-0.41
-0.32
0.06
0.82
1.91
3.09
3.99
4.32
3.97
3.13
2.18
1.46
1.16
1.22
1.42
1.47
1.21
0.60
-0.23
-1.06
-1.68
-1.90
-1.62
-0.86
0.29
1.69
3.12
4.28
4.75
4.20
2.46
-0.26
-3.35
-5.99
-7.48
-7.48
-6.16
-4.10
-1.92
-0.14
1.05
1.66
1.83
1.70
1.37
0.92
0.39
-0.15
-0.69
-1.16
-1.55
-1.80
-1.88
-1.80
-1.58
-1.24
-0.78
-0.16
0.65
1.59
2.51
3.23
3.56
3.45
2.95
2.20
1.44
0.90
0.75
1.03
1.59
2.13
2.28
1.85
0.87
-0.31
-1.24
-1.52
-0.97
0.28
1.88
3.39
4.34
4.35
3.24
1.14
-1.55
-4.18
-6.07
-6.74
-6.10
-4.44
-2.30
-0.23
1.38
2.37
2.77
2.71
2.35
1.90
1.50
1.26
1.15
1.10
1.06
1.02
1.05
1.19
1.46
1.78
2.08
2.31
2.47
2.61
2.77
2.92
2.93
2.68
2.11
1.27
0.29
-0.64
-1.35
-1.70
-1.61
-1.12
-0.36
0.44
1.04
1.26
1.09
0.67
0.22
-0.03
0.07
0.57
1.45
2.54
3.50
3.92
3.37
1.66
-1.00
-3.97
-6.46
-7.75
-7.61
-6.25
-4.29
-2.35
-0.83
0.15
0.69
0.92
0.94
0.77
0.45
0.05
-0.35
-0.68
-0.91
-1.05
-1.10
-1.06
-0.95
-0.82
-0.74
-0.75
-0.84
-0.90
-0.82
-0.56
-0.18
0.16
0.30
0.13
-0.31
-0.89
-1.41
-1.67
-1.54
-1.03
-0.28
0.48
1.05
1.28
1.25
1.16
1.29
1.84
2.82
4.05
5.23
6.03
6.21
5.63
4.35
2.56
0.59
-1.17
-2.34
-2.71
-2.23
-1.06
0.49
2.03
3.24
3.92
4.00
3.54
2.68
1.60
0.46
-0.65
-1.70
-2.75
-3.88
-5.10
-6.35
-7.51
-8.42
-8.97
-9.06
-8.70
-7.98
-7.01
-5.97
-5.02
-4.35
-4.05
-4.19
-4.73
-5.56
-6.53
-7.49
-8.39
-9.18
-9.84
-10.29
-10.36
-9.83
-8.45
-5.99
-2.31
2.55
8.35
14.64
20.84
26.42
31.07
34.83
38.03
41.06
44.10
46.96
49.09
49.81
48.67
45.65
41.22
36.15
31.20
26.88
23.35
20.52
18.20
16.30
14.74
13.43
12.17
10.56
8.13
4.59
-0.02
-5.22
-10.26
-14.39
-17.14
-18.48
-18.71
-18.21
-17.28
-15.99
-14.30
-12.19
-9.81
-7.46
-5.47
-4.06
-3.24
-2.83
-2.61
-2.44
-2.25
-2.04
-1.79
-1.44
-0.94
-0.28
0.43
0.98
1.13
0.72
-0.32
-1.91
-3.87
-5.98
-8.10
-10.16
-12.12
-14.01
-15.80
-17.42
-18.80
-19.91
-20.73
-21.24
-21.42
-21.20
-20.54
-19.48
-18.22
-17.04
-16.16
-15.63
-15.28
-14.83
-14.07
-12.94
-11.60
-10.21
-8.84
-7.35
-5.57
-3.38
-0.93
1.44
3.34
4.58
5.25
5.66
6.20
7.11
8.42
9.94
11.45
12.82
14.02
15.07
16.02
16.81
17.35
17.59
17.50
17.15
16.63
16.01
15.30
14.55
13.90
13.62
13.99
15.09
16.64
17.95
18.10
16.32
12.28
6.30
-0.76
-7.76
-13.69
-17.96
-20.47
-21.63
-22.07
-22.54
-23.75
-26.27
-30.50
-36.54
-44.04
-52.13
-59.51
-64.72
-66.55
-64.46
-58.74
-50.47
-41.08
-31.91
-23.82
-17.15
-11.73
-7.25
-3.44
-0.10
2.82
5.40
7.67
9.67
11.35
12.61
13.38
13.70
13.75
13.77
13.96
14.36
14.81
15.01
14.69
13.65
11.84
9.42
6.69
4.06
1.97
0.76
0.52
1.00
1.62
1.69
0.73
-1.33
-4.01
-6.47
-7.83
-7.58
-5.74
-2.86
0.31
3.12
5.21
6.60
7.42
7.86
7.99
7.85
7.50
7.10
6.84
6.85
7.09
7.37
7.44
7.13
6.47
5.63
4.90
4.51
4.53
4.88
5.37
5.79
6.00
5.98
5.84
5.63
5.40
5.03
4.44
3.58
2.62
1.81
1.38
1.43
1.83
2.27
2.45
2.18
1.47
0.45
-0.68
-1.75
-2.63
-3.20
-3.34
-2.98
-2.18
-1.17
-0.29
0.04
-0.43
-1.73
-3.57
-5.42
-6.74
-7.17
-6.64
-5.39
-3.84
-2.39
-1.25
-0.50
-0.08
0.07
-0.01
-0.31
-0.76
-1.28
-1.75
-2.10
-2.30
-2.37
-2.31
-2.06
-1.57
-0.82
0.13
1.15
2.10
2.89
3.52
4.03
4.45
4.76
4.94
4.93
4.75
4.44
4.06
3.70
3.47
3.42
3.61
3.95
4.25
4.23
3.69
2.64
1.35
0.23
-0.34
-0.22
0.50
1.56
2.63
3.41
3.61
2.98
1.39
-1.07
-4.00
-6.84
-8.99
-10.05
-9.93
-8.83
-7.09
-5.16
-3.41
-2.12
-1.44
-1.29
-1.43
-1.54
-1.33
-0.71
0.24
1.34
2.44
3.47
4.36
5.05
5.43
5.44
5.18
4.87
4.80
5.10
5.71
6.36
6.79
6.88
6.67
6.30
5.93
5.60
5.26
4.82
4.24
3.57
2.90
2.35
2.04
2.00
2.17
2.41
2.47
2.17
1.41
0.27
-0.99
-2.10
-2.81
-3.00
-2.63
-1.72
-0.39
1.09
2.32
2.78
2.09
0.24
-2.35
-4.96
-6.87
-7.63
-7.19
-5.91
-4.29
-2.76
-1.55
-0.68
-0.11
0.24
0.38
0.32
0.11
-0.16
-0.37
-0.36
-0.06
0.46
1.08
1.58
1.83
1.82
1.69
1.64
1.80
2.21
2.74
3.23
3.49
3.46
3.18
2.74
2.29
1.92
1.66
1.49
1.37
1.27
1.16
1.02
0.84
0.67
0.53
0.46
0.45
0.49
0.52
0.48
0.33
0.08
-0.22
-0.50
-0.66
-0.65
-0.43
-0.02
0.48
0.87
0.84
0.09
-1.56
-3.99
-6.82
-9.43
-11.24
-11.89
-11.37
-9.91
-7.92
-5.77
-3.72
-1.96
-0.64
0.18
0.43
0.20
-0.32
-0.86
-1.17
-1.14
-0.82
-0.36
0.10
0.42
0.63
0.83
1.13
1.66
2.41
3.28
4.13
4.76
5.06
5.01
4.68
4.19
3.68
3.22
2.82
2.45
2.05
1.62
1.18
0.75
0.34
-0.08
-0.51
-0.93
-1.27
-1.51
-1.62
-1.68
-1.74
-1.85
-2.03
-2.24
-2.51
-2.94
-3.69
-4.89
-6.55
-8.43
-10.10
-11.11
-11.12
-10.06
-8.20
-5.97
-3.80
-1.95
-0.45
0.82
1.96
3.02
3.92
4.56
4.90
4.99
4.98
5.03
5.24
5.66
6.26
6.94
7.64
8.25
8.74
9.07
9.25
9.30
9.19
8.90
8.37
7.59
6.62
5.65
4.90
4.51
4.51
4.75
5.03
5.11
4.87
4.32
3.54
2.65
1.80
1.10
0.67
0.60
0.85
1.21
1.30
0.72
-0.74
-3.01
-5.64
-8.06
-9.71
-10.35
-10.01
-8.92
-7.37
-5.57
-3.69
-1.88
-0.33
0.73
1.14
0.92
0.27
-0.50
-1.03
-1.12
-0.71
0.19
1.41
2.82
4.20
5.33
6.06
6.33
6.21
5.88
5.52
5.21
4.90
4.50
3.89
3.02
1.95
0.76
-0.41
-1.42
-2.18
-2.60
-2.70
-2.59
-2.46
-2.48
-2.71
-3.10
-3.46
-3.67
-3.59
-3.21
-2.55
-1.65
-0.64
0.23
0.60
0.09
-1.48
-3.95
-6.78
-9.24
-10.63
-10.58
-9.13
-6.70
-3.87
-1.22
0.88
2.23
2.83
2.83
2.43
1.86
1.33
0.99
0.93
1.15
1.62
2.25
2.93
3.50
3.84
3.83
3.48
2.88
2.22
1.65
1.23
0.99
0.84
0.78
0.86
1.16
1.72
2.49
3.28
3.93
4.33
4.50
4.57
4.68
4.84
4.92
4.71
4.04
2.92
1.60
0.46
-0.13
0.06
1.00
2.43
3.90
4.88
4.94
3.86
1.77
-0.90
-3.52
-5.50
-6.51
-6.51
-5.76
-4.59
-3.29
-2.02
-0.86
0.07
0.66
0.80
0.53
0.01
-0.51
-0.86
-1.00
-1.04
-1.11
-1.26
-1.45
-1.58
-1.61
-1.51
-1.35
-1.12
-0.81
-0.41
0.05
0.44
0.67
0.68
0.51
0.29
0.15
0.16
0.30
0.48
0.60
0.58
0.39
0.06
-0.33
-0.63
-0.74
-0.59
-0.19
0.36
0.98
1.58
2.06
2.24
1.90
0.91
-0.69
-2.55
-4.19
-5.11
-5.13
-4.34
-3.14
-1.93
-0.97
-0.29
0.22
0.68
1.13
1.49
1.62
1.40
0.80
-0.08
-1.07
-1.95
-2.54
-2.76
-2.66
-2.38
-2.13
-2.05
-2.17
-2.38
-2.48
-2.28
-1.71
-0.82
0.20
1.14
1.82
2.16
2.20
2.03
1.73
1.36
0.96
0.60
0.34
0.26
0.36
0.61
0.93
1.32
1.85
2.62
3.67
4.82
5.66
5.60
4.23
1.53
-2.02
-5.56
-8.18
-9.34
-9.00
-7.64
-5.91
-4.36
-3.24
-2.46
-1.80
-1.05
-0.15
0.81
1.66
2.21
2.38
2.19
1.78
1.36
1.13
1.18
1.52
2.01
2.49
2.83
2.95
2.91
2.77
2.59
2.36
2.01
1.48
0.78
0.02
-0.60
-0.89
-0.76
-0.28
0.33
0.80
0.95
0.70
0.15
-0.58
-1.31
-1.97
-2.48
-2.81
-2.87
-2.56
-1.84
-0.82
0.13
0.50
-0.23
-2.28
-5.39
-8.89
-11.90
-13.74
-14.18
-13.48
-12.18
-10.86
-9.85
-9.24
-8.96
-8.86
-8.86
-8.92
-9.01
-9.16
-9.47
-10.07
-11.05
-12.38
-13.78
-14.76
-14.76
-13.32
-10.16
-5.29
1.06
8.46
16.23
23.55
29.50
33.36
34.75
33.75
30.88
26.85
22.36
17.99
14.16
11.22
9.44
8.96
9.72
11.32
13.15
14.49
14.79
13.78
11.59
8.63
5.52
2.91
1.28
0.78
1.20
2.03
2.63
2.51
1.40
-0.56
-2.93
-5.11
-6.52
-6.74
-5.64
-3.40
-0.47
2.55
5.14
6.98
8.11
8.77
9.32
9.98
10.73
11.39
11.69
11.50
10.86
9.96
8.99
8.08
7.20
6.25
5.17
4.02
2.90
1.97
1.25
0.66
-0.02
-0.92
-2.04
-3.25
-4.32
-5.12
-5.66
-6.09
-6.61
-7.28
-8.00
-8.58
-8.86
-8.88
-8.87
-9.11
-9.78
-10.78
-11.79
-12.48
-12.60
-12.12
-11.17
-9.97
-8.77
-7.87
-7.56
-8.06
-9.41
-11.36
-13.34
-14.68
-14.82
-13.54
-11.05
-7.90
-4.72
-2.04
-0.16
0.88
1.26
1.29
1.27
1.42
1.81
2.35
2.88
3.22
3.28
3.04
2.51
1.74
0.77
-0.33
-1.40
-2.29
-2.84
-3.04
-2.96
-2.77
-2.66
-2.70
-2.91
-3.15
-3.28
-3.21
-2.93
-2.49
-2.01
-1.57
-1.17
-0.79
-0.37
0.05
0.42
0.65
0.72
0.70
0.72
0.90
1.25
1.71
2.16
2.50
2.69
2.63
2.14
1.01
-0.89
-3.42
-6.17
-8.54
-10.02
-10.37
-9.71
-8.39
-6.82
-5.32
-4.07
-3.13
-2.51
-2.21
-2.13
-2.22
-2.35
-2.48
-2.58
-2.65
-2.61
-2.37
-1.87
-1.17
-0.40
0.30
0.91
1.51
2.27
3.28
4.49
5.73
6.79
7.52
7.89
7.95
7.71
7.23
6.56
5.79
5.09
4.59
4.31
4.16
3.94
3.51
2.81
1.95
1.11
0.48
0.22
0.40
1.00
1.90
2.84
3.50
3.55
2.76
1.16
-0.95
-3.10
-4.79
-5.69
-5.75
-5.11
-3.99
-2.60
-1.11
0.35
1.58
2.44
2.78
2.56
1.89
0.98
0.09
-0.56
-0.85
-0.80
-0.52
-0.15
0.17
0.38
0.53
0.71
1.03
1.51
2.07
2.53
2.72
2.55
2.09
1.49
0.95
0.62
0.57
0.76
1.12
1.59
2.08
2.54
2.89
3.06
3.07
2.99
2.98
3.23
3.80
4.61
5.36
5.63
5.03
3.35
0.65
-2.72
-6.15
-8.99
-10.66
-10.84
-9.56
-7.24
-4.48
-1.90
0.06
1.29
1.92
2.22
2.39
2.42
2.22
1.66
0.75
-0.28
-1.14
-1.56
-1.47
-0.95
-0.26
0.37
0.83
1.11
1.31
1.49
1.68
1.81
1.81
1.64
1.32
0.86
0.33
-0.21
-0.70
-1.03
-1.15
-1.00
-0.68
-0.37
-0.27
-0.51
-1.03
-1.62
-1.96
-1.84
-1.15
0.03
1.43
2.68
3.36
3.11
1.68
-0.82
-4.00
-7.16
-9.54
-10.57
-10.09
-8.37
-5.93
-3.33
-0.98
0.89
2.23
3.06
3.39
3.27
2.82
2.21
1.61
1.18
0.97
0.97
1.06
1.12
1.09
0.96
0.81
0.76
0.88
1.17
1.54
1.82
1.87
1.63
1.10
0.42
-0.25
-0.71
-0.85
-0.70
-0.40
-0.20
-0.33
-0.89
-1.72
-2.52
-2.95
-2.77
-1.96
-0.70
0.69
1.87
2.51
2.38
1.40
-0.30
-2.38
-4.33
-5.67
-6.11
-5.67
-4.63
-3.36
-2.21
-1.37
-0.89
-0.73
-0.80
-0.98
-1.11
-1.08
-0.88
-0.62
-0.50
-0.71
-1.34
-2.23
-3.17
-3.93
-4.38
-4.53
-4.42
-4.10
-3.56
-2.78
-1.84
-0.89
-0.11
0.38
0.58
0.57
0.49
0.38
0.24
0.01
-0.35
-0.80
-1.23
-1.52
-1.56
-1.34
-0.94
-0.48
-0.12
-0.04
-0.43
-1.40
-2.93
-4.85
-6.84
-8.53
-9.60
-9.91
-9.48
-8.49
-7.22
-5.88
-4.59
-3.33
-1.99
-0.47
1.25
3.06
4.74
6.07
6.92
7.26
7.26
7.15
7.14
7.35
7.75
8.26
8.71
9.06
9.30
9.48
9.64
9.73
9.64
9.23
8.47
7.42
6.27
5.15
4.12
3.13
2.02
0.68
-0.90
-2.57
-4.18
-5.57
-6.75
-7.81
-8.93
-10.21
-11.65
-13.13
-14.47
-15.49
-16.08
-16.26
-16.17
-16.11
-16.52
-17.77
-20.03
-23.12
-26.47
-29.25
-30.70
-30.37
-28.30
-24.94
-20.93
-16.83
-12.95
-9.35
-5.92
-2.56
0.72
3.83
6.66
9.11
11.16
12.88
14.33
15.57
16.61
17.49
18.21
18.85
19.53
20.39
21.49
22.78
24.08
25.07
25.51
25.24
24.29
22.84
21.12
19.32
17.54
15.79
14.08
12.44
10.91
9.53
8.28
7.08
5.86
4.62
3.42
2.38
1.53
0.82
0.11
-0.72
-1.69
-2.69
-3.52
-4.03
-4.16
-4.00
-3.70
-3.34
-2.97
-2.62
-2.36
-2.39
-2.99
-4.41
-6.66
-9.49
-12.37
-14.69
-16.01
-16.13
-15.18
-13.46
-11.27
-8.83
-6.24
-3.56
-0.87
1.66
3.89
5.73
7.19
8.43
9.61
10.90
12.34
13.90
15.42
16.71
17.60
18.00
17.93
17.50
16.86
16.17
15.52
14.95
14.48
14.04
13.55
12.91
12.00
10.79
9.37
7.93
6.69
5.80
5.21
4.74
4.16
3.34
2.33
1.35
0.64
0.37
0.52
0.85
1.11
1.06
0.62
-0.16
-1.17
-2.26
-3.34
-4.29
-5.00
-5.30
-5.10
-4.34
-3.19
-2.04
-1.40
-1.73
-3.19
-5.51
-8.06
-10.05
-10.88
-10.36
-8.77
-6.68
-4.67
-3.03
-1.78
-0.73
0.25
1.16
1.88
2.28
2.34
2.15
1.87
1.61
1.41
1.26
1.07
0.79
0.42
-0.03
-0.46
-0.81
-0.99
-1.03
-1.00
-1.02
-1.22
-1.59
-2.05
-2.46
-2.71
-2.76
-2.70
-2.64
-2.69
-2.85
-3.13
-3.48
-3.85
-4.15
-4.28
-4.09
-3.50
-2.56
-1.45
-0.41
0.38
0.83
1.02
1.09
1.20
1.42
1.75
2.13
2.46
2.57
2.31
1.51
0.13
-1.66
-3.47
-4.87
-5.50
-5.29
-4.41
-3.21
-2.00
-0.91
0.07
1.06
2.05
2.93
3.51
3.67
3.42
2.92
2.40
2.01
1.75
1.50
1.10
0.47
-0.28
-0.98
-1.40
-1.45
-1.13
-0.57
0.11
0.81
1.51
2.15
2.65
2.90
2.84
2.50
1.99
1.50
1.18
1.14
1.36
1.76
2.23
2.68
3.06
3.35
3.57
3.76
3.98
4.32
4.87
5.69
6.78
8.02
9.11
9.73
9.63
8.80
7.49
6.14
5.19
4.93
5.40
6.43
7.72
9.01
10.11
10.90
11.36
11.46
11.14
10.40
9.26
7.84
6.31
4.83
3.50
2.35
1.34
0.42
-0.37
-0.97
-1.26
-1.18
-0.74
-0.06
0.72
1.41
1.84
1.88
1.46
0.63
-0.41
-1.36
-1.98
-2.16
-2.00
-1.76
-1.60
-1.59
-1.57
-1.36
-0.90
-0.34
0.06
0.05
-0.43
-1.25
-2.16
-2.90
-3.35
-3.46
-3.28
-2.85
-2.34
-1.99
-2.14
-3.08
-4.96
-7.60
-10.60
-13.41
-15.56
-16.82
-17.15
-16.72
-15.75
-14.47
-13.13
-11.97
-11.18
-10.87
-11.04
-11.52
-12.04
-12.30
-12.09
-11.36
-10.22
-8.92
-7.66
-6.61
-5.77
-5.08
-4.41
-3.71
-3.01
-2.44
-2.15
-2.25
-2.74
-3.52
-4.38
-5.12
-5.57
-5.63
-5.29
-4.62
-3.69
-2.61
-1.47
-0.34
0.66
1.42
1.80
1.77
1.36
0.72
0.06
-0.43
-0.61
-0.39
0.22
1.18
2.33
3.44
4.22
4.35
3.62
2.05
-0.11
-2.41
-4.29
-5.33
-5.32
-4.41
-2.97
-1.50
-0.42
0.07
0.03
-0.28
-0.61
-0.83
-0.98
-1.21
-1.65
-2.29
-2.90
-3.20
-2.96
-2.18
-1.07
0.01
0.79
1.13
1.13
0.94
0.75
0.60
0.49
0.37
0.24
0.16
0.19
0.35
0.63
0.92
1.15
1.24
1.20
1.07
0.94
0.85
0.85
0.98
1.25
1.69
2.31
3.08
3.92
4.72
5.30
5.39
4.76
3.27
0.96
-1.85
-4.69
-6.97
-8.25
-8.33
-7.32
-5.54
-3.48
-1.57
-0.14
0.63
0.73
0.31
-0.38
-1.04
-1.45
-1.54
-1.36
-1.09
-0.85
-0.67
-0.48
-0.16
0.33
0.91
1.44
1.78
1.89
1.84
1.77
1.75
1.78
1.85
1.89
1.93
1.98
2.11
2.27
2.39
2.37
2.14
1.67
1.05
0.37
-0.23
-0.58
-0.51
0.07
1.05
2.12
2.77
2.52
1.15
-1.22
-4.08
-6.83
-8.91
-10.03
-10.15
-9.43
-8.05
-6.21
-4.10
-1.99
-0.15
1.19
1.91
2.04
1.77
1.31
0.84
0.45
0.18
0.07
0.13
0.40
0.86
1.43
1.97
2.31
2.39
2.25
2.03
1.93
2.10
2.52
3.07
3.54
3.76
3.66
3.28
2.76
2.22
1.76
1.38
1.04
0.67
0.18
-0.47
-1.27
-2.10
-2.74
-2.94
-2.57
-1.66
-0.57
0.17
-0.04
-1.60
-4.52
-8.40
-12.49
-15.98
-18.22
-18.98
-18.41
-16.99
-15.27
-13.75
-12.71
-12.24
-12.27
-12.67
-13.28
-14.04
-14.90
-15.93
-17.17
-18.65
-20.23
-21.60
-22.30
-21.78
-19.70
-15.98
-10.97
-5.30
0.32
5.25
9.11
11.73
13.17
13.58
13.14
12.05
10.54
8.95
7.68
7.16
7.66
9.27
11.74
14.61
17.33
19.42
20.72
21.34
21.66
22.12
23.07
24.66
26.85
29.41
32.01
34.26
35.74
36.18
35.47
33.77
31.42
28.77
26.06
23.30
20.39
17.22
13.83
10.41
7.19
4.34
1.90
-0.21
-2.06
-3.63
-4.85
-5.59
-5.85
-5.79
-5.74
-6.15
-7.37
-9.56
-12.52
-15.83
-18.91
-21.30
-22.72
-23.22
-22.97
-22.21
-21.17
-20.05
-19.07
-18.41
-18.17
-18.23
-18.30
-18.01
-17.18
-15.86
-14.31
-12.75
-11.18
-9.39
-6.99
-3.71
0.49
5.35
10.38
15.07
18.95
21.68
23.10
23.30
22.57
21.35
20.09
19.07
18.34
17.71
16.86
15.50
13.43
10.64
7.31
3.81
0.59
-1.86
-3.19
-3.32
-2.42
-0.95
0.57
1.68
2.09
1.72
0.64
-0.91
-2.60
-4.03
-4.83
-4.83
-4.06
-2.89
-1.90
-1.68
-2.58
-4.58
-7.28
-10.09
-12.44
-14.02
-14.72
-14.61
-13.79
-12.31
-10.26
-7.85
-5.47
-3.58
-2.50
-2.35
-2.91
-3.77
-4.46
-4.65
-4.14
-2.78
-0.51
2.65
6.44
10.32
13.54
15.45
15.74
14.68
13.01
11.66
11.40
12.61
15.20
18.78
22.79
26.72
30.12
32.64
34.06
34.29
33.40
31.52
28.84
25.57
21.96
18.29
14.91
12.09
9.94
8.37
7.08
5.83
4.48
3.11
1.91
1.00
0.32
-0.41
-1.49
-3.08
-5.08
-7.10
-8.68
-9.48
-9.49
-9.04
-8.61
-8.64
-9.23
-10.15
-10.94
-11.18
-10.76
-9.95
-9.24
-9.07
-9.58
-10.55
-11.54
-12.16
-12.28
-12.06
-11.81
-11.70
-11.73
-11.74
-11.60
-11.43
-11.60
-12.55
-14.55
-17.40
-20.45
-22.83
-23.80
-23.06
-20.90
-17.96
-14.95
-12.40
-10.43
-8.95
-7.74
-6.67
-5.69
-4.85
-4.19
-3.64
-3.11
-2.50
-1.75
-0.87
0.06
0.93
1.65
2.10
2.20
1.92
1.34
0.60
-0.15
-0.78
-1.29
-1.73
-2.18
-2.67
-3.18
-3.62
-3.95
-4.16
-4.30
-4.43
-4.63
-4.88
-5.11
-5.19
-5.01
-4.52
-3.77
-2.90
-2.04
-1.31
-0.69
-0.11
0.52
1.21
1.89
2.43
2.74
2.89
2.97
3.09
3.13
2.86
1.96
0.27
-2.03
-4.47
-6.39
-7.33
-7.13
-6.02
-4.48
-2.97
-1.83
-1.11
-0.68
-0.40
-0.16
0.02
0.03
-0.24
-0.78
-1.51
-2.21
-2.69
-2.80
-2.54
-2.00
-1.36
-0.79
-0.39
-0.14
0.09
0.43
0.93
1.54
2.11
2.39
2.22
1.58
0.59
-0.49
-1.37
-1.83
-1.84
-1.53
-1.12
-0.83
-0.77
-0.92
-1.15
-1.27
-1.14
-0.62
0.32
1.61
3.08
4.44
5.31
5.38
4.49
2.78
0.65
-1.38
-2.83
-3.41
-3.09
-2.11
-0.82
0.43
1.40
2.04
2.42
2.65
2.79
2.78
2.48
1.78
0.68
-0.69
-2.04
-3.16
-3.91
-4.35
-4.59
-4.75
-4.83
-4.73
-4.36
-3.74
-3.04
-2.53
-2.48
-3.08
-4.28
-5.89
-7.58
-9.08
-10.21
-10.94
-11.36
-11.59
-11.68
-11.58
-11.13
-10.20
-8.72
-6.80
-4.72
-2.72
-1.05
0.10
0.64
0.52
-0.17
-1.15
-2.00
-2.30
-1.81
-0.74
0.44
1.19
1.22
0.71
0.12
-0.03
0.47
1.43
2.48
3.25
3.65
3.74
3.69
3.58
3.41
3.19
3.05
3.16
3.69
4.63
5.83
7.08
8.23
9.25
10.17
10.93
11.35
11.25
10.55
9.41
8.23
7.43
7.26
7.67
8.33
8.85
8.90
8.40
7.47
6.39
5.49
5.04
5.20
5.96
7.07
8.11
8.59
8.18
6.83
4.88
2.90
1.45
0.91
1.32
2.53
4.21
6.08
7.81
9.03
9.32
8.34
6.11
3.05
0.03
-2.05
-2.51
-1.28
1.11
3.81
5.89
6.79
6.34
4.76
2.46
-0.08
-2.48
-4.39
-5.59
-5.94
-5.49
-4.52
-3.44
-2.73
-2.71
-3.46
-4.74
-6.15
-7.30
-7.89
-7.87
-7.29
-6.31
-5.10
-3.80
-2.60
-1.69
-1.33
-1.66
-2.67
-4.11
-5.53
-6.48
-6.65
-6.06
-4.93
-3.72
-2.75
-2.20
-2.02
-2.06
-2.19
-2.40
-2.87
-3.80
-5.39
-7.65
-10.45
-13.47
-16.36
-18.71
-20.19
-20.59
-19.74
-17.72
-14.74
-11.24
-7.80
-5.01
-3.35
-3.00
-3.87
-5.58
-7.69
-9.77
-11.58
-12.99
-14.04
-14.77
-15.24
-15.54
-15.75
-15.99
-16.31
-16.78
-17.44
-18.38
-19.76
-21.74
-24.35
-27.41
-30.48
-32.99
-34.45
-34.61
-33.45
-31.13
-27.83
-23.68
-18.80
-13.38
-7.68
-2.01
3.34
8.25
12.70
16.74
20.37
23.54
26.15
28.16
29.60
30.66
31.55
32.60
34.03
35.95
38.32
40.82
43.05
44.55
45.02
44.46
43.12
41.43
39.79
38.53
37.77
37.46
37.44
37.48
37.27
36.49
34.85
32.24
28.79
24.83
20.87
17.36
14.56
12.45
10.77
9.20
7.41
5.24
2.71
-0.03
-2.77
-5.31
-7.49
-9.21
-10.45
-11.25
-11.71
-11.93
-12.00
-11.95
-11.75
-11.35
-10.75
-10.01
-9.30
-8.81
-8.66
-8.89
-9.38
-9.96
-10.44
-10.70
-10.78
-10.81
-11.03
-11.63
-12.68
-14.10
-15.68
-17.19
-18.53
-19.73
-20.95
-22.36
-23.98
-25.69
-27.30
-28.60
-29.47
-29.85
-29.77
-29.26
-28.36
-27.16
-25.73
-24.16
-22.46
-20.49
-18.05
-14.92
-10.96
-6.23
-1.02
4.22
9.04
13.12
16.33
18.74
20.52
21.85
22.88
23.73
24.48
25.21
25.98
26.84
27.71
28.50
29.09
29.42
29.45
29.19
28.67
27.92
27.00
25.98
24.87
23.66
22.31
20.79
19.20
17.71
16.47
15.54
14.74
13.78
12.37
10.37
7.87
5.09
2.29
-0.28
-2.40
-3.82
-4.34
-3.91
-2.73
-1.24
-0.00
0.57
0.37
-0.37
-1.28
-2.02
-2.47
-2.74
-3.03
-3.51
-4.23
-5.07
-5.84
-6.36
-6.51
-6.25
-5.69
-4.97
-4.24
-3.60
-2.99
-2.34
-1.60
-0.77
0.04
0.72
1.24
1.64
2.02
2.48
3.09
3.79
4.47
4.99
5.19
4.96
4.28
3.22
1.99
0.85
0.05
-0.29
-0.19
0.19
0.68
1.10
1.32
1.35
1.21
1.00
0.83
0.83
1.06
1.47
1.94
2.20
1.96
1.00
-0.66
-2.71
-4.66
-5.95
-6.20
-5.41
-3.92
-2.25
-0.87
-0.02
0.34
0.41
0.36
0.29
0.21
0.08
-0.01
-0.01
0.14
0.40
0.66
0.83
0.88
0.81
0.67
0.49
0.27
0.04
-0.10
-0.02
0.34
0.93
1.58
2.03
2.12
1.83
1.28
0.64
0.10
-0.24
-0.36
-0.29
-0.12
0.05
0.09
-0.11
-0.59
-1.29
-2.02
-2.58
-2.81
-2.66
-2.28
-1.89
-1.72
-1.88
-2.29
-2.75
-3.02
-2.98
-2.67
-2.23
-1.89
-1.79
-2.02
-2.60
-3.53
-4.69
-5.91
-6.86
-7.20
-6.73
-5.48
-3.76
-2.05
-0.74
0.01
0.36
0.64
1.12
1.85
2.67
3.28
3.44
3.14
2.61
2.15
2.00
2.26
2.78
3.36
3.78
3.90
3.72
3.35
2.86
2.35
1.81
1.19
0.48
-0.29
-0.98
-1.36
-1.32
-0.85
-0.11
0.63
1.06
1.01
0.44
-0.50
-1.55
-2.41
-2.87
-2.85
-2.50
-2.02
-1.65
-1.57
-1.81
-2.26
-2.76
-3.14
-3.31
-3.25
-3.00
-2.60
-2.18
-1.88
-1.93
-2.48
-3.55
-4.91
-6.16
-6.84
-6.66
-5.66
-4.11
-2.46
-1.05
0.01
0.79
1.48
2.18
2.79
3.16
3.16
2.88
2.60
2.68
3.33
4.53
5.97
7.25
7.99
8.02
7.40
6.41
5.33
4.33
3.43
2.49
1.37
0.02
-1.43
-2.76
-3.73
-4.22
-4.33
-4.26
-4.23
-4.33
-4.51
-4.60
-4.47
-4.11
-3.61
-3.13
-2.79
-2.63
-2.60
-2.62
-2.64
-2.61
-2.53
-2.43
-2.34
-2.29
-2.25
-2.13
-1.78
-1.07
-0.03
1.14
2.15
2.69
2.66
2.18
1.52
0.98
0.70
0.68
0.83
1.06
1.34
1.69
2.10
2.46
2.66
2.58
2.21
1.63
0.99
0.47
0.16
0.10
0.21
0.36
0.49
0.57
0.68
0.91
1.28
1.68
1.95
1.91
1.57
1.03
0.53
0.24
0.16
0.12
-0.12
-0.71
-1.60
-2.58
-3.31
-3.58
-3.31
-2.63
-1.79
-1.14
-0.96
-1.38
-2.32
-3.46
-4.42
-4.84
-4.54
-3.59
-2.24
-0.81
0.43
1.36
1.98
2.32
2.43
2.35
2.13
1.88
1.75
1.89
2.33
2.96
3.58
3.97
4.00
3.70
3.25
2.86
2.68
2.70
2.78
2.77
2.56
2.11
1.55
0.98
0.48
0.05
-0.36
-0.82
-1.33
-1.81
-2.11
-2.09
-1.71
-1.08
-0.44
0.01
0.11
-0.09
-0.42
-0.67
-0.74
-0.67
-0.56
-0.46
-0.33
-0.02
0.49
1.00
1.08
0.30
-1.48
-3.94
-6.40
-8.11
-8.62
-7.97
-6.62
-5.11
-3.82
-2.86
-2.09
-1.34
-0.51
0.35
1.20
1.99
2.76
3.58
4.49
5.48
6.48
7.38
8.07
8.47
8.61
8.65
8.80
9.32
10.33
11.78
13.44
14.99
16.12
16.67
16.59
15.99
15.01
13.80
12.44
11.01
9.56
8.21
7.08
6.33
6.00
5.97
6.00
5.75
5.01
3.79
2.24
0.66
-0.75
-1.92
-2.83
-3.52
-3.98
-4.27
-4.59
-5.25
-6.56
-8.63
-11.16
-13.54
-15.11
-15.41
-14.47
-12.75
-10.89
-9.41
-8.54
-8.22
-8.21
-8.34
-8.57
-8.94
-9.51
-10.21
-10.84
-11.15
-10.93
-10.12
-8.90
-7.53
-6.26
-5.26
-4.52
-3.88
-3.20
-2.37
-1.42
-0.46
0.37
0.95
1.22
1.23
1.01
0.67
0.25
-0.25
-0.93
-1.89
-3.20
-4.75
-6.31
-7.53
-8.14
-8.02
-7.21
-5.92
-4.33
-2.63
-1.02
0.26
0.91
0.67
-0.49
-2.26
-4.06
-5.25
-5.42
-4.55
-3.03
-1.39
-0.11
0.62
0.87
0.84
0.74
0.68
0.63
0.55
0.44
0.28
0.09
-0.14
-0.44
-0.85
-1.32
-1.77
-2.11
-2.29
-2.32
-2.26
-2.18
-2.05
-1.79
-1.29
-0.56
0.26
0.93
1.23
1.06
0.53
-0.10
-0.50
-0.53
-0.22
0.20
0.46
0.37
-0.03
-0.57
-1.02
-1.20
-1.04
-0.54
0.30
1.41
2.68
3.80
4.40
4.12
2.89
0.99
-0.99
-2.46
-3.08
-2.87
-2.20
-1.48
-1.00
-0.72
-0.44
0.10
0.97
2.03
2.97
3.49
3.42
2.79
1.79
0.70
-0.24
-0.92
-1.32
-1.48
-1.49
-1.41
-1.28
-1.16
-1.05
-0.94
-0.79
-0.58
-0.32
-0.09
0.07
0.11
0.09
0.09
0.19
0.36
0.54
0.59
0.44
0.08
-0.42
-0.90
-1.22
-1.28
-1.06
-0.61
-0.03
0.56
1.14
1.72
2.28
2.67
2.65
1.96
0.56
-1.24
-2.93
-3.99
-4.20
-3.80
-3.23
-2.96
-3.12
-3.49
-3.70
-3.50
-2.95
-2.30
-1.88
-1.78
-1.87
-1.90
-1.63
-1.03
-0.16
0.80
1.66
2.28
2.54
2.42
1.95
1.27
0.58
0.07
-0.14
-0.03
0.32
0.78
1.19
1.42
1.45
1.28
1.03
0.83
0.78
0.86
0.93
0.81
0.36
-0.36
-1.19
-1.94
-2.45
-2.69
-2.71
-2.53
-2.11
-1.38
-0.46
0.42
0.92
0.81
0.08
-0.93
-1.81
-2.18
-1.97
-1.35
-0.63
-0.10
0.17
0.24
0.28
0.43
0.77
1.23
1.67
1.97
2.05
1.96
1.83
1.79
1.95
2.26
2.55
2.60
2.29
1.67
0.96
0.44
0.31
0.61
1.16
1.75
2.17
2.36
2.37
2.31
2.24
2.10
1.83
1.35
0.76
0.27
0.12
0.39
0.99
1.69
2.22
2.55
2.75
3.01
3.39
3.75
3.81
3.32
2.28
0.94
-0.24
-0.91
-0.94
-0.49
0.11
0.63
0.95
1.18
1.45
1.78
2.07
2.12
1.75
0.93
-0.20
-1.36
-2.29
-2.77
-2.81
-2.55
-2.25
-2.12
-2.26
-2.58
-2.89
-3.00
-2.85
-2.53
-2.19
-2.00
-1.98
-1.99
-1.85
-1.39
-0.63
0.32
1.22
1.92
2.34
2.56
2.72
2.94
3.24
3.51
3.65
3.61
3.51
3.53
3.83
4.33
4.73
4.58
3.57
1.70
-0.70
-3.10
-4.97
-6.01
-6.21
-5.75
-4.89
-3.85
-2.81
-1.88
-1.14
-0.62
-0.28
-0.11
-0.08
-0.19
-0.52
-1.11
-1.92
-2.82
-3.61
-4.09
-4.20
-3.96
-3.52
-3.07
-2.76
-2.63
-2.65
-2.69
-2.62
-2.38
-2.00
-1.59
-1.24
-0.99
-0.83
-0.67
-0.50
-0.34
-0.30
-0.43
-0.77
-1.27
-1.82
-2.32
-2.71
-2.95
-3.05
-3.00
-2.76
-2.31
-1.66
-0.96
-0.43
-0.29
-0.68
-1.51
-2.55
-3.47
-4.08
-4.31
-4.29
-4.14
-3.89
-3.47
-2.81
-2.00
-1.27
-0.90
-1.01
-1.52
-2.08
-2.33
-2.05
-1.24
-0.06
1.35
2.95
4.85
7.20
10.09
13.45
17.08
20.67
23.84
26.25
27.61
27.87
27.16
25.88
24.55
23.69
23.53
24.02
24.69
24.90
24.03
21.79
18.41
14.45
10.58
7.22
4.34
1.52
-1.70
-5.47
-9.46
-12.96
-15.26
-16.05
-15.56
-14.44
-13.44
-13.04
-13.33
-14.09
-15.00
-15.77
-16.32
-16.57
-16.50
-16.01
-15.05
-13.61
-11.81
-9.91
-8.10
-6.52
-5.15
-3.88
-2.54
-0.98
0.98
3.40
6.28
9.43
12.42
14.72
15.81
15.39
13.51
10.58
7.31
4.48
2.75
2.47
3.64
5.94
8.83
11.73
14.11
15.55
15.75
14.56
11.93
8.05
3.34
-1.58
-6.05
-9.63
-12.17
-13.91
-15.21
-16.43
-17.71
-19.01
-20.15
-20.99
-21.47
-21.64
-21.60
-21.44
-21.23
-21.00
-20.74
-20.45
-20.14
-19.87
-19.65
-19.42
-18.99
-18.07
-16.36
-13.71
-10.20
-6.17
-2.08
1.62
4.55
6.50
7.50
7.71
7.44
6.99
6.58
6.28
6.03
5.68
5.11
4.32
3.43
2.60
1.93
1.47
1.17
1.00
0.88
0.81
0.74
0.64
0.51
0.39
0.30
0.30
0.37
0.45
0.43
0.24
-0.20
-0.87
-1.71
-2.63
-3.49
-4.17
-4.61
-4.84
-4.99
-5.22
-5.73
-6.63
-7.92
-9.50
-11.10
-12.40
-13.02
-12.68
-11.30
-9.10
-6.62
-4.46
-3.11
-2.73
-3.12
-3.84
-4.49
-4.85
-4.93
-4.88
-4.82
-4.75
-4.53
-4.08
-3.40
-2.66
-2.11
-1.90
-1.99
-2.11
-1.95
-1.24
0.07
1.86
3.82
5.65
7.13
8.15
8.78
9.16
9.51
10.02
10.79
11.82
12.96
14.03
14.86
15.42
15.80
16.22
16.82
17.61
18.50
19.31
19.98
20.49
20.84
20.92
20.47
19.17
16.82
13.54
9.80
6.21
3.33
1.37
0.23
-0.40
-0.81
-1.18
-1.57
-1.99
-2.56
-3.36
-4.38
-5.46
-6.33
-6.74
-6.61
-6.05
-5.30
-4.54
-3.83
-3.09
-2.21
-1.13
0.15
1.54
2.94
4.23
5.32
6.16
6.76
7.16
7.47
7.75
7.99
8.08
7.92
7.44
6.69
5.76
4.72
3.57
2.23
0.64
-1.15
-2.94
-4.46
-5.43
-5.70
-5.33
-4.53
-3.66
-3.01
-2.77
-2.97
-3.49
-4.10
-4.63
-4.91
-4.86
-4.42
-3.57
-2.36
-0.99
0.20
0.82
0.56
-0.59
-2.34
-4.20
-5.71
-6.62
-6.93
-6.78
-6.34
-5.70
-4.86
-3.83
-2.75
-1.81
-1.27
-1.24
-1.71
-2.47
-3.21
-3.64
-3.59
-3.06
-2.22
-1.36
-0.77
-0.67
-1.03
-1.63
-2.17
-2.38
-2.20
-1.72
-1.20
-0.88
-0.88
-1.18
-1.58
-1.88
-1.94
-1.76
-1.47
-1.27
-1.28
-1.47
-1.70
-1.77
-1.53
-0.96
-0.12
0.87
1.95
3.05
4.06
4.74
4.82
4.13
2.75
1.06
-0.43
-1.32
-1.47
-1.09
-0.53
-0.10
0.14
0.33
0.66
1.19
1.85
2.38
2.61
2.47
2.10
1.74
1.63
1.84
2.21
2.45
2.26
1.55
0.46
-0.67
-1.49
-1.80
-1.68
-1.36
-1.08
-0.95
-0.87
-0.69
-0.32
0.17
0.59
0.78
0.67
0.36
-0.02
-0.35
-0.63
-0.94
-1.34
-1.80
-2.26
-2.54
-2.48
-1.99
-1.08
0.09
1.27
2.11
2.36
1.90
0.83
-0.56
-1.90
-2.91
-3.44
-3.55
-3.38
-3.08
-2.75
-2.40
-2.02
-1.58
-1.14
-0.78
-0.62
-0.69
-0.93
-1.12
-1.01
-0.45
0.54
1.71
2.68
3.15
3.00
2.36
1.50
0.69
0.06
-0.37
-0.70
-0.97
-1.15
-1.15
-0.94
-0.56
-0.14
0.16
0.24
0.05
-0.36
-0.83
-1.24
-1.46
-1.43
-1.19
-0.85
-0.50
-0.15
0.22
0.71
1.36
2.11
2.78
3.12
2.96
2.24
1.12
-0.10
-1.07
-1.57
-1.57
-1.26
-0.91
-0.79
-1.00
-1.44
-1.88
-2.07
-1.90
-1.42
-0.82
-0.28
0.11
0.35
0.48
0.54
0.55
0.51
0.50
0.57
0.75
0.97
1.09
0.99
0.65
0.21
-0.13
-0.20
-0.03
0.17
0.15
-0.22
-0.88
-1.52
-1.86
-1.72
-1.17
-0.51
-0.04
0.02
-0.31
-0.81
-1.19
-1.24
-0.95
-0.48
-0.10
0.06
0.08
0.14
0.48
1.10
1.84
2.36
2.40
1.94
1.18
0.48
0.10
0.14
0.46
0.88
1.26
1.54
1.76
1.96
2.14
2.20
2.06
1.67
1.07
0.39
-0.23
-0.63
-0.75
-0.63
-0.39
-0.18
-0.12
-0.26
-0.51
-0.77
-0.88
-0.77
-0.43
0.06
0.60
1.08
1.43
1.61
1.63
1.56
1.45
1.38
1.33
1.28
1.16
0.94
0.62
0.22
-0.24
-0.75
-1.27
-1.71
-1.92
-1.80
-1.33
-0.68
-0.11
0.13
-0.10
-0.68
-1.37
-1.88
-2.01
-1.72
-1.09
-0.29
0.51
1.18
1.65
1.93
2.11
2.28
2.49
2.70
2.80
2.72
2.41
1.97
1.51
1.17
1.01
1.01
1.09
1.16
1.15
1.03
0.84
0.67
0.63
0.78
1.07
1.38
1.59
1.61
1.52
1.42
1.41
1.46
1.46
1.25
0.77
0.07
-0.71
-1.43
-2.03
-2.51
-2.89
-3.21
-3.42
-3.49
-3.43
-3.24
-2.93
-2.50
-1.98
-1.49
-1.21
-1.33
-1.86
-2.60
-3.18
-3.30
-2.93
-2.27
-1.68
-1.43
-1.56
-1.84
-1.98
-1.81
-1.33
-0.74
-0.19
0.21
0.45
0.58
0.65
0.64
0.58
0.46
0.35
0.29
0.29
0.34
0.44
0.62
0.92
1.34
1.78
2.12
2.19
1.92
1.30
0.46
-0.42
-1.16
-1.71
-2.09
-2.44
-2.86
-3.36
-3.85
-4.17
-4.19
-3.96
-3.60
-3.34
-3.32
-3.58
-4.00
-4.34
-4.38
-3.96
-3.05
-1.80
-0.45
0.70
1.38
1.52
1.21
0.72
0.32
0.23
0.50
1.06
1.75
2.42
2.94
3.27
3.37
3.24
2.96
2.61
2.27
1.98
1.74
1.47
1.15
0.85
0.71
0.86
1.35
2.08
2.83
3.35
3.44
3.10
2.48
1.85
1.45
1.40
1.64
1.97
2.16
2.10
1.83
1.53
1.38
1.48
1.71
1.84
1.64
1.10
0.34
-0.38
-0.90
-1.17
-1.27
-1.29
-1.21
-0.90
-0.29
0.54
1.34
1.78
1.72
1.26
0.73
0.49
0.69
1.21
1.76
2.06
2.01
1.69
1.32
1.04
0.90
0.84
0.77
0.57
0.21
-0.27
-0.77
-1.16
-1.34
-1.29
-1.07
-0.75
-0.39
0.02
0.52
1.12
1.71
2.12
2.20
1.92
1.40
0.83
0.31
-0.15
-0.68
-1.37
-2.20
-2.98
-3.52
-3.70
-3.52
-3.15
-2.77
-2.50
-2.36
-2.31
-2.30
-2.31
-2.33
-2.33
-2.24
-1.94
-1.38
-0.63
0.08
0.52
0.47
-0.06
-0.88
-1.70
-2.26
-2.46
-2.34
-2.05
-1.71
-1.35
-0.90
-0.32
0.36
1.03
1.53
1.76
1.75
1.64
1.59
1.72
2.02
2.40
2.74
2.96
3.09
3.17
3.28
3.42
3.54
3.57
3.45
3.23
2.99
2.81
2.66
2.47
2.10
1.48
0.66
-0.17
-0.79
-1.02
-0.86
-0.45
0.01
0.32
0.41
0.31
0.15
0.02
-0.05
-0.06
-0.05
-0.04
-0.03
-0.03
-0.10
-0.31
-0.77
-1.48
-2.39
-3.30
-3.99
-4.25
-4.01
-3.34
-2.41
-1.40
-0.45
0.42
1.22
1.98
2.69
3.25
3.54
3.51
3.21
2.78
2.45
2.35
2.50
2.81
3.07
3.16
3.04
2.76
2.42
2.12
1.90
1.74
1.58
1.36
1.04
0.59
0.05
-0.49
-0.92
-1.15
-1.14
-0.94
-0.68
-0.48
-0.46
-0.63
-0.96
-1.35
-1.72
-2.04
-2.29
-2.45
-2.52
-2.50
-2.40
-2.23
-2.00
-1.72
-1.44
-1.22
-1.12
-1.19
-1.39
-1.64
-1.81
-1.81
-1.61
-1.29
-0.91
-0.53
-0.18
0.15
0.48
0.84
1.25
1.70
2.16
2.54
2.72
2.65
2.35
1.95
1.65
1.58
1.73
2.00
2.27
2.51
2.75
3.06
3.42
3.71
3.76
3.46
2.88
2.19
1.62
1.32
1.25
1.28
1.25
1.08
0.78
0.45
0.11
-0.25
-0.74
-1.43
-2.30
-3.19
-3.88
-4.19
-4.08
-3.68
-3.19
-2.80
-2.66
-2.76
-3.04
-3.37
-3.62
-3.67
-3.44
-2.90
-2.11
-1.19
-0.30
0.40
0.87
1.14
1.31
1.48
1.72
2.02
2.34
2.62
2.83
2.97
3.09
3.25
3.40
3.45
3.29
2.85
2.19
1.48
0.95
0.77
0.95
1.36
1.78
2.04
2.08
1.93
1.69
1.40
1.05
0.60
0.02
-0.65
-1.30
-1.85
-2.26
-2.55
-2.79
-3.05
-3.37
-3.70
-3.93
-3.98
-3.76
-3.28
-2.62
-1.90
-1.29
-0.95
-0.99
-1.41
-2.08
-2.76
-3.22
-3.30
-2.98
-2.39
-1.68
-1.01
-0.46
-0.03
0.31
0.60
0.85
1.11
1.41
1.76
2.13
2.46
2.69
2.79
2.77
2.65
2.44
2.12
1.69
1.18
0.70
0.35
0.24
0.33
0.54
0.71
0.74
0.60
0.35
0.06
-0.17
-0.33
-0.40
-0.39
-0.30
-0.15
0.01
0.11
0.05
-0.28
-0.93
-1.86
-2.93
-3.92
-4.61
-4.89
-4.77
-4.40
-3.97
-3.59
-3.32
-3.12
-2.99
-3.01
-3.21
-3.58
-3.93
-3.99
-3.54
-2.53
-1.19
0.13
1.11
1.64
1.81
1.82
1.77
1.69
1.53
1.26
0.97
0.83
0.96
1.38
2.00
2.64
3.13
3.32
3.17
2.67
1.94
1.16
0.53
0.21
0.21
0.45
0.72
0.91
0.99
1.01
1.06
1.15
1.26
1.30
1.24
1.10
0.93
0.73
0.51
0.23
-0.15
-0.62
-1.15
-1.70
-2.24
-2.72
-3.06
-3.19
-3.07
-2.76
-2.40
-2.11
-1.97
-1.89
-1.72
-1.31
-0.66
0.11
0.80
1.29
1.57
1.79
2.14
2.71
3.48
4.31
5.00
5.40
5.50
5.38
5.18
5.00
4.90
4.84
4.74
4.54
4.20
3.75
3.27
2.81
2.37
1.96
1.52
1.07
0.65
0.28
0.04
-0.06
-0.05
-0.03
-0.12
-0.44
-1.03
-1.88
-2.82
-3.71
-4.41
-4.91
-5.28
-5.66
-6.14
-6.67
-7.14
-7.36
-7.17
-6.52
-5.53
-4.47
-3.62
-3.22
-3.34
-3.82
-4.36
-4.69
-4.61
-4.09
-3.24
-2.18
-1.04
0.09
1.11
1.92
2.42
2.62
2.60
2.52
2.50
2.61
2.77
2.91
2.98
3.05
3.24
3.61
4.16
4.73
5.14
5.24
5.02
4.54
3.98
3.44
2.94
2.45
1.96
1.54
1.29
1.29
1.52
1.80
1.89
1.63
1.04
0.34
-0.21
-0.44
-0.41
-0.34
-0.48
-0.95
-1.66
-2.40
-2.94
-3.14
-3.01
-2.66
-2.23
-1.87
-1.68
-1.73
-2.03
-2.49
-2.96
-3.25
-3.24
-2.95
-2.47
-1.94
-1.42
-0.87
-0.22
0.53
1.28
1.85
2.02
1.66
0.87
-0.14
-1.06
-1.61
-1.67
-1.31
-0.73
-0.21
0.08
0.11
-0.02
-0.09
-0.01
0.24
0.55
0.76
0.82
0.75
0.66
0.65
0.75
0.91
1.06
1.08
0.93
0.59
0.13
-0.35
-0.71
-0.82
-0.69
-0.46
-0.34
-0.50
-0.94
-1.46
-1.79
-1.71
-1.23
-0.56
0.00
0.24
0.10
-0.32
-0.85
-1.37
-1.88
-2.36
-2.75
-2.92
-2.75
-2.19
-1.35
-0.42
0.38
0.97
1.37
1.69
2.05
2.46
2.88
3.23
3.49
3.71
3.97
4.32
4.72
5.05
5.23
5.18
4.90
4.48
3.99
3.54
3.24
3.16
3.31
3.63
3.98
4.20
4.20
3.90
3.35
2.59
1.67
0.70
-0.19
-0.84
-1.14
-1.08
-0.78
-0.47
-0.31
-0.34
-0.51
-0.73
-0.96
-1.26
-1.65
-2.15
-2.69
-3.17
-3.55
-3.86
-4.15
-4.39
-4.49
-4.36
-3.95
-3.35
-2.66
-2.00
-1.38
-0.82
-0.30
0.10
0.32
0.36
0.29
0.27
0.33
0.47
0.53
0.46
0.27
0.07
-0.01
0.04
0.18
0.32
0.41
0.52
0.76
1.14
1.58
1.90
1.97
1.73
1.27
0.74
0.27
-0.07
-0.29
-0.47
-0.68
-0.99
-1.40
-1.81
-2.08
-2.09
-1.81
-1.36
-0.97
-0.85
-1.10
-1.65
-2.29
-2.82
-3.12
-3.18
-3.04
-2.76
-2.38
-2.00
-1.71
-1.64
-1.87
-2.36
-2.95
-3.41
-3.52
-3.17
-2.43
-1.48
-0.60
0.01
0.29
0.34
0.39
0.66
1.30
2.19
3.12
3.84
4.28
4.49
4.64
4.82
5.00
5.11
5.17
5.32
5.81
6.77
8.11
9.46
10.43
10.79
10.62
10.21
9.89
9.80
9.83
9.74
9.36
8.64
7.71
6.68
5.61
4.45
3.11
1.57
-0.08
-1.68
-3.09
-4.21
-5.06
-5.63
-5.96
-6.05
-5.95
-5.76
-5.64
-5.72
-6.07
-6.61
-7.12
-7.40
-7.30
-6.80
-6.02
-5.12
-4.22
-3.39
-2.62
-1.93
-1.34
-0.85
-0.44
-0.05
0.48
1.25
2.28
3.53
4.79
5.83
6.44
6.51
6.11
5.47
4.92
4.77
5.15
6.01
7.06
7.94
8.28
7.89
6.75
5.03
3.00
0.96
-0.83
-2.17
-2.97
-3.21
-3.01
-2.53
-2.03
-1.72
-1.74
-2.11
-2.69
-3.27
-3.60
-3.54
-3.07
-2.28
-1.38
-0.61
-0.17
-0.21
-0.71
-1.50
-2.30
-2.87
-3.09
-3.03
-2.85
-2.71
-2.61
-2.42
-1.99
-1.21
-0.17
0.95
1.88
2.47
2.67
2.57
2.33
2.13
2.15
2.51
3.21
4.13
5.06
5.81
6.28
6.53
6.76
7.23
8.17
9.62
11.44
13.28
14.64
15.03
14.10
11.82
8.51
4.79
1.31
-1.46
-3.38
-4.61
-5.44
-6.08
-6.53
-6.69
-6.45
-5.83
-4.98
-4.09
-3.31
-2.72
-2.37
-2.36
-2.77
-3.67
-4.94
-6.36
-7.62
-8.52
-8.97
-9.03
-8.77
-8.20
-7.32
-6.13
-4.75
-3.37
-2.19
-1.30
-0.67
-0.22
0.14
0.46
0.75
1.02
1.30
1.63
2.01
2.39
2.72
2.93
3.00
2.92
2.67
2.24
1.65
0.98
0.37
-0.01
-0.05
0.27
0.84
1.54
2.18
2.61
2.72
2.47
1.91
1.16
0.43
-0.11
-0.34
-0.29
-0.04
0.21
0.29
0.03
-0.59
-1.51
-2.62
-3.70
-4.61
-5.26
-5.67
-5.87
-5.89
-5.70
-5.22
-4.46
-3.52
-2.59
-1.91
-1.61
-1.67
-1.95
-2.23
-2.41
-2.42
-2.27
-2.03
-1.78
-1.60
-1.52
-1.55
-1.63
-1.63
-1.40
-0.90
-0.20
0.46
0.81
0.69
0.17
-0.50
-1.03
-1.29
-1.36
-1.50
-2.00
-3.03
-4.53
-6.29
-8.06
-9.65
-10.96
-11.96
-12.65
-13.02
-13.17
-13.33
-13.85
-15.00
-16.82
-19.01
-21.06
-22.38
-22.66
-21.88
-20.34
-18.40
-16.34
-14.28
-12.18
-10.04
-7.99
-6.25
-5.01
-4.27
-3.78
-3.13
-1.94
-0.12
2.19
4.62
6.91
9.03
11.17
13.60
16.35
19.14
21.43
22.77
23.03
22.55
21.96
21.79
22.23
22.98
23.48
23.13
21.75
19.57
17.12
14.95
13.31
12.07
10.84
9.23
7.18
5.07
3.63
3.58
5.31
8.59
12.75
17.00
20.77
24.03
27.08
30.21
33.40
36.14
37.65
37.31
34.87
30.42
24.27
16.58
7.48
-2.80
-13.64
-23.90
-32.18
-37.32
-38.88
-37.26
-33.53
-29.02
-24.75
-21.25
-18.56
-16.32
-14.21
-11.98
-9.63
-7.36
-5.49
-4.34
-4.15
-5.11
-7.34
-10.83
-15.37
-20.38
-25.04
-28.39
-29.76
-29.05
-26.75
-23.76
-20.93
-18.59
-16.55
-14.25
-11.23
-7.48
-3.49
0.10
2.85
4.74
6.13
7.47
9.00
10.77
12.84
15.50
19.31
24.81
32.15
40.75
49.42
56.74
61.61
63.75
63.61
62.02
59.73
57.13
54.24
51.03
47.58
44.18
41.18
38.74
36.69
34.65
32.16
28.94
25.01
20.59
16.00
11.41
6.86
2.30
-2.35
-7.00
-11.43
-15.33
-18.43
-20.66
-22.19
-23.37
-24.52
-25.82
-27.15
-28.22
-28.74
-28.62
-28.06
-27.45
-27.14
-27.24
-27.57
-27.71
-27.28
-26.06
-24.12
-21.74
-19.29
-17.06
-15.25
-13.98
-13.33
-13.34
-13.98
-15.08
-16.29
-17.25
-17.66
-17.43
-16.74
-15.86
-15.07
-14.52
-14.18
-13.95
-13.71
-13.47
-13.27
-13.16
-13.11
-12.96
-12.53
-11.67
-10.42
-8.94
-7.49
-6.30
-5.47
-4.96
-4.61
-4.27
-3.86
-3.44
-3.07
-2.85
-2.78
-2.82
-2.92
-3.06
-3.29
-3.67
-4.24
-4.98
-5.78
-6.49
-6.95
-7.05
-6.75
-6.16
-5.39
-4.64
-4.02
-3.56
-3.19
-2.80
-2.25
-1.44
-0.38
0.75
1.64
1.88
1.15
-0.68
-3.40
-6.49
-9.31
-11.39
-12.55
-12.98
-13.05
-13.06
-13.14
-13.16
-12.94
-12.36
-11.48
-10.52
-9.71
-9.16
-8.83
-8.55
-8.05
-7.14
-5.76
-4.07
-2.36
-0.94
-0.09
0.15
-0.09
-0.58
-1.06
-1.34
-1.40
-1.20
-0.81
-0.28
0.29
0.78
1.03
0.94
0.48
-0.19
-0.85
-1.23
-1.12
-0.43
0.78
2.33
3.93
5.27
6.12
6.42
6.27
5.84
5.33
4.83
4.33
3.81
3.26
2.68
2.09
1.40
0.52
-0.61
-1.89
-3.13
-4.12
-4.81
-5.30
-5.74
-6.24
-6.70
-6.86
-6.52
-5.65
-4.46
-3.28
-2.39
-1.87
-1.60
-1.34
-0.83
0.08
1.50
3.39
5.60
7.87
9.88
11.31
12.06
12.27
12.18
12.09
12.12
12.21
12.22
11.99
11.56
11.09
10.76
10.70
10.87
11.19
11.48
11.62
11.50
11.05
10.28
9.30
8.27
7.43
6.96
6.95
7.35
7.96
8.47
8.57
8.04
6.88
5.33
3.81
2.68
2.15
2.12
2.28
2.28
1.93
1.29
0.66
0.33
0.40
0.78
1.24
1.59
1.79
1.98
2.29
2.80
3.45
4.09
4.57
4.86
5.05
5.32
5.80
6.44
7.12
7.58
7.67
7.34
6.72
6.03
5.46
5.14
5.08
5.15
5.25
5.25
5.06
4.63
3.96
3.10
2.15
1.29
0.73
0.64
1.02
1.70
2.38
2.68
2.37
1.42
-0.03
-1.70
-3.29
-4.57
-5.40
-5.69
-5.49
-4.89
-4.06
-3.16
-2.33
-1.62
-1.03
-0.56
-0.26
-0.18
-0.37
-0.81
-1.35
-1.87
-2.28
-2.60
-2.87
-3.13
-3.37
-3.50
-3.52
-3.46
-3.43
-3.42
-3.36
-3.06
-2.34
-1.20
0.20
1.54
2.47
2.76
2.36
1.42
0.16
-1.19
-2.45
-3.55
-4.39
-4.90
-4.93
-4.37
-3.25
-1.88
-0.81
-0.64
-1.75
-4.08
-7.09
-9.97
-12.02
-12.89
-12.68
-11.75
-10.51
-9.22
-7.94
-6.59
-5.20
-3.82
-2.61
-1.66
-1.03
-0.65
-0.41
-0.20
0.07
0.40
0.71
0.82
0.59
-0.07
-1.08
-2.21
-3.17
-3.71
-3.73
-3.29
-2.57
-1.78
-1.11
-0.60
-0.22
0.15
0.63
1.30
2.09
2.86
3.39
3.54
3.33
2.96
2.71
2.84
3.45
4.47
5.69
6.90
7.85
8.32
8.15
7.25
5.71
3.84
2.05
0.75
0.13
0.10
0.38
0.68
0.79
0.73
0.60
0.50
0.49
0.59
0.77
1.03
1.33
1.62
1.85
1.95
1.91
1.79
1.62
1.41
1.13
0.78
0.44
0.19
0.15
0.35
0.66
0.94
1.02
0.84
0.47
0.07
-0.19
-0.20
0.07
0.53
1.03
1.38
1.43
1.15
0.61
0.00
-0.47
-0.62
-0.34
0.39
1.45
2.59
3.42
3.54
2.73
1.04
-1.10
-3.14
-4.59
-5.26
-5.30
-5.03
-4.77
-4.61
-4.47
-4.22
-3.82
-3.33
-2.90
-2.59
-2.39
-2.28
-2.23
-2.28
-2.48
-2.81
-3.21
-3.59
-3.92
-4.22
-4.50
-4.64
-4.42
-3.60
-2.06
0.03
2.27
4.15
5.33
5.74
5.65
5.44
5.42
5.64
5.93
5.99
5.63
4.85
3.86
3.00
2.57
2.75
3.49
4.64
5.86
6.84
7.22
6.78
5.45
3.42
1.13
-0.92
-2.34
-3.04
-3.25
-3.33
-3.59
-4.10
-4.68
-5.06
-5.06
-4.75
-4.34
-4.08
-4.08
-4.25
-4.44
-4.46
-4.29
-4.02
-3.83
-3.83
-4.06
-4.40
-4.73
-4.91
-4.87
-4.59
-4.13
-3.53
-2.84
-2.07
-1.30
-0.57
-0.05
0.15
-0.05
-0.60
-1.29
-1.85
-2.04
-1.80
-1.23
-0.53
0.08
0.53
0.79
0.94
1.01
1.10
1.32
1.87
2.91
4.32
5.71
6.40
5.80
3.77
0.73
-2.50
-5.02
-6.37
-6.61
-6.18
-5.62
-5.21
-4.95
-4.68
-4.28
-3.79
-3.37
-3.17
-3.20
-3.33
-3.33
-3.02
-2.34
-1.43
-0.58
-0.09
-0.21
-0.98
-2.19
-3.51
-4.57
-5.14
-5.16
-4.69
-3.85
-2.73
-1.45
-0.20
0.78
1.29
1.25
0.84
0.35
0.13
0.34
0.89
1.54
2.04
2.26
2.23
2.12
2.07
2.14
2.34
2.69
3.29
4.19
5.43
6.79
7.82
8.02
7.04
4.94
2.20
-0.44
-2.30
-3.13
-3.09
-2.69
-2.40
-2.46
-2.73
-2.90
-2.70
-2.05
-1.10
-0.12
0.69
1.20
1.42
1.42
1.29
1.16
1.11
1.24
1.52
1.83
2.08
2.19
2.23
2.39
2.84
3.61
4.57
5.44
5.94
5.90
5.34
4.46
3.51
2.73
2.18
1.81
1.46
0.96
0.25
-0.59
-1.37
-1.89
-2.05
-1.83
-1.29
-0.49
0.59
1.81
2.89
3.38
2.88
1.26
-1.12
-3.58
-5.40
-6.19
-6.00
-5.27
-4.49
-3.98
-3.77
-3.72
-3.68
-3.59
-3.47
-3.32
-3.11
-2.77
-2.22
-1.48
-0.64
0.16
0.76
1.05
0.99
0.67
0.26
-0.01
0.02
0.38
0.93
1.48
1.86
2.03
1.96
1.71
1.26
0.66
-0.04
-0.67
-1.06
-1.08
-0.77
-0.26
0.20
0.43
0.41
0.22
0.08
0.14
0.49
1.10
1.87
2.75
3.70
4.70
5.55
5.91
5.35
3.60
0.72
-2.73
-5.90
-7.97
-8.53
-7.73
-6.21
-4.69
-3.63
-3.07
-2.72
-2.25
-1.51
-0.64
0.06
0.37
0.25
-0.13
-0.49
-0.60
-0.41
-0.06
0.24
0.33
0.18
-0.12
-0.40
-0.48
-0.31
0.09
0.58
1.03
1.33
1.45
1.46
1.43
1.40
1.34
1.15
0.77
0.27
-0.17
-0.36
-0.21
0.24
0.78
1.21
1.43
1.51
1.60
1.84
2.27
2.84
3.50
4.23
5.01
5.68
5.96
5.51
4.17
2.09
-0.21
-2.16
-3.32
-3.67
-3.51
-3.24
-3.13
-3.21
-3.29
-3.19
-2.83
-2.31
-1.79
-1.40
-1.13
-0.89
-0.58
-0.14
0.39
0.95
1.41
1.69
1.74
1.55
1.24
0.92
0.71
0.70
0.88
1.21
1.58
1.88
1.98
1.80
1.37
0.84
0.39
0.18
0.26
0.53
0.83
1.04
1.11
1.13
1.18
1.33
1.54
1.81
2.11
2.53
3.11
3.77
4.25
4.20
3.35
1.71
-0.41
-2.49
-4.07
-4.89
-5.01
-4.69
-4.18
-3.66
-3.13
-2.55
-1.93
-1.35
-0.92
-0.72
-0.73
-0.80
-0.77
-0.52
-0.09
0.38
0.67
0.56
0.02
-0.82
-1.71
-2.37
-2.59
-2.35
-1.71
-0.81
0.16
1.01
1.57
1.71
1.41
0.78
0.03
-0.61
-0.99
-1.08
-0.93
-0.66
-0.37
-0.13
0.00
-0.03
-0.25
-0.60
-0.93
-1.02
-0.64
0.33
1.84
3.61
5.15
5.88
5.32
3.35
0.30
-3.07
-5.93
-7.65
-8.07
-7.49
-6.45
-5.45
-4.75
-4.30
-3.94
-3.52
-2.97
-2.39
-1.85
-1.45
-1.18
-1.00
-0.80
-0.48
0.02
0.66
1.31
1.80
2.06
2.12
2.11
2.20
2.44
2.78
3.11
3.31
3.32
3.17
2.90
2.53
2.04
1.41
0.65
-0.19
-0.99
-1.66
-2.09
-2.26
-2.21
-2.00
-1.79
-1.71
-1.81
-2.04
-2.25
-2.24
-1.89
-1.13
0.01
1.43
2.95
4.31
5.17
5.15
4.08
2.08
-0.38
-2.60
-4.03
-4.43
-4.00
-3.23
-2.58
-2.23
-2.12
-2.03
-1.80
-1.42
-1.01
-0.64
-0.30
0.16
0.87
1.85
2.95
3.92
4.49
4.55
4.12
3.35
2.43
1.58
0.94
0.64
0.73
1.17
1.83
2.51
3.02
3.25
3.17
2.88
2.53
2.28
2.26
2.50
2.96
3.51
3.95
4.18
4.10
3.79
3.36
3.05
3.03
3.45
4.31
5.46
6.55
7.06
6.59
4.95
2.40
-0.45
-2.89
-4.43
-4.99
-4.89
-4.61
-4.49
-4.57
-4.67
-4.58
-4.22
-3.69
-3.22
-2.91
-2.73
-2.47
-1.93
-1.05
0.02
1.00
1.60
1.64
1.20
0.52
-0.06
-0.29
-0.07
0.48
1.11
1.60
1.79
1.70
1.40
1.00
0.54
0.06
-0.37
-0.68
-0.77
-0.63
-0.33
-0.06
0.04
-0.13
-0.46
-0.76
-0.83
-0.56
0.05
0.93
1.97
3.12
4.29
5.22
5.60
5.09
3.57
1.32
-1.08
-2.95
-3.82
-3.67
-2.90
-2.08
-1.67
-1.81
-2.31
-2.85
-3.24
-3.45
-3.63
-3.92
-4.34
-4.72
-4.83
-4.54
-3.89
-3.17
-2.73
-2.83
-3.45
-4.28
-4.85
-4.77
-3.95
-2.61
-1.22
-0.22
0.16
-0.06
-0.62
-1.22
-1.58
-1.55
-1.11
-0.40
0.44
1.22
1.79
2.12
2.27
2.36
2.49
2.75
3.10
3.42
3.58
3.46
3.06
2.44
1.83
1.47
1.59
2.24
3.30
4.40
5.09
5.00
3.96
2.14
-0.05
-2.09
-3.57
-4.27
-4.25
-3.78
-3.16
-2.66
-2.33
-2.12
-1.92
-1.63
-1.30
-1.01
-0.84
-0.78
-0.76
-0.65
-0.39
-0.00
0.39
0.64
0.71
0.64
0.51
0.46
0.51
0.64
0.78
0.87
0.91
0.95
1.03
1.16
1.35
1.52
1.59
1.53
1.33
1.04
0.76
0.55
0.42
0.39
0.45
0.63
0.95
1.41
1.93
2.41
2.73
2.88
2.96
3.16
3.64
4.37
5.05
5.27
4.65
3.18
1.16
-0.85
-2.30
-2.93
-2.82
-2.36
-1.91
-1.70
-1.73
-1.87
-1.98
-2.06
-2.17
-2.34
-2.56
-2.71
-2.68
-2.45
-2.06
-1.65
-1.34
-1.16
-1.10
-1.11
-1.15
-1.19
-1.26
-1.32
-1.33
-1.18
-0.75
0.00
1.02
2.10
2.99
3.45
3.41
2.93
2.24
1.55
1.04
0.73
0.63
0.70
0.92
1.30
1.76
2.19
2.46
2.48
2.32
2.18
2.32
2.90
3.87
4.94
5.66
5.62
4.60
2.69
0.30
-2.05
-3.88
-4.93
-5.23
-4.99
-4.45
-3.75
-2.91
-1.95
-0.95
-0.13
0.31
0.21
-0.33
-1.04
-1.57
-1.64
-1.16
-0.31
0.60
1.24
1.48
1.36
1.11
0.99
1.14
1.55
2.08
2.54
2.84
3.00
3.08
3.14
3.16
3.03
2.67
2.07
1.29
0.43
-0.46
-1.35
-2.18
-2.82
-3.08
-2.81
-2.05
-1.02
-0.10
0.38
0.31
-0.20
-0.87
-1.38
-1.54
-1.23
-0.43
0.83
2.40
3.92
4.89
4.83
3.52
1.17
-1.61
-4.10
-5.72
-6.28
-5.96
-5.12
-4.08
-3.05
-2.10
-1.27
-0.66
-0.33
-0.30
-0.47
-0.68
-0.78
-0.74
-0.60
-0.49
-0.52
-0.74
-1.17
-1.74
-2.33
-2.80
-3.01
-2.87
-2.39
-1.66
-0.84
-0.07
0.51
0.84
0.93
0.81
0.52
0.12
-0.35
-0.84
-1.28
-1.59
-1.68
-1.54
-1.22
-0.91
-0.76
-0.86
-1.16
-1.43
-1.41
-0.94
-0.10
0.83
1.47
1.52
0.98
0.06
-0.86
-1.49
-1.66
-1.33
-0.57
0.53
1.84
3.08
3.91
3.96
3.03
1.22
-1.02
-3.08
-4.44
-4.87
-4.47
-3.57
-2.55
-1.65
-0.91
-0.25
0.43
1.13
1.77
2.17
2.23
1.93
1.46
1.04
0.86
0.87
0.91
0.73
0.22
-0.49
-1.12
-1.36
-1.08
-0.36
0.54
1.38
1.98
2.31
2.44
2.42
2.35
2.26
2.20
2.15
2.09
1.91
1.56
1.05
0.50
0.11
0.07
0.40
1.02
1.70
2.27
2.60
2.70
2.66
2.63
2.75
3.18
4.01
5.24
6.63
7.76
8.09
7.21
5.06
2.03
-1.20
-3.88
-5.51
-6.02
-5.67
-4.90
-4.15
-3.66
-3.48
-3.52
-3.63
-3.69
-3.65
-3.49
-3.23
-2.88
-2.48
-2.09
-1.77
-1.68
-1.95
-2.63
-3.64
-4.73
-5.61
-5.99
-5.72
-4.82
-3.48
-1.98
-0.67
0.18
0.40
0.03
-0.75
-1.62
-2.30
-2.66
-2.74
-2.73
-2.76
-2.92
-3.11
-3.16
-2.96
-2.50
-1.98
-1.60
-1.52
-1.75
-2.13
-2.43
-2.54
-2.47
-2.30
-2.11
-1.88
-1.51
-0.97
-0.42
-0.13
-0.32
-0.95
-1.69
-2.06
-1.73
-0.75
0.49
1.47
1.83
1.61
1.10
0.68
0.56
0.70
0.87
0.89
0.72
0.49
0.35
0.41
0.65
0.90
1.00
0.81
0.34
-0.24
-0.72
-0.91
-0.71
-0.21
0.42
0.97
1.27
1.24
0.98
0.63
0.35
0.21
0.21
0.26
0.26
0.22
0.15
0.11
0.13
0.16
0.07
-0.22
-0.71
-1.27
-1.75
-2.06
-2.16
-2.11
-1.93
-1.64
-1.27
-0.93
-0.80
-1.09
-1.89
-3.06
-4.25
-5.09
-5.26
-4.74
-3.77
-2.67
-1.74
-1.06
-0.51
0.12
0.94
1.87
2.68
3.09
2.95
2.32
1.49
0.81
0.52
0.67
1.13
1.71
2.28
2.83
3.45
4.24
5.22
6.32
7.35
8.11
8.44
8.28
7.69
6.84
5.96
5.23
4.75
4.51
4.37
4.20
3.89
3.39
2.74
2.02
1.36
0.95
1.01
1.65
2.83
4.25
5.45
5.95
5.42
3.97
1.95
-0.05
-1.55
-2.33
-2.49
-2.28
-1.99
-1.77
-1.57
-1.30
-0.85
-0.22
0.44
0.96
1.23
1.26
1.18
1.15
1.28
1.51
1.70
1.70
1.46
1.02
0.56
0.20
0.02
-0.03
0.02
0.12
0.28
0.52
0.82
1.12
1.36
1.46
1.39
1.13
0.67
0.01
-0.80
-1.67
-2.42
-2.86
-2.91
-2.55
-1.87
-0.98
0.07
1.24
2.42
3.42
3.96
3.80
2.84
1.34
-0.28
-1.52
-2.05
-1.88
-1.25
-0.56
-0.10
0.06
0.02
0.00
0.19
0.59
1.13
1.60
1.84
1.76
1.40
0.89
0.39
0.04
-0.12
-0.09
0.02
0.17
0.29
0.38
0.43
0.46
0.44
0.34
0.13
-0.20
-0.65
-1.19
-1.73
-2.24
-2.68
-3.02
-3.27
-3.39
-3.40
-3.27
-3.00
-2.61
-2.18
-1.80
-1.55
-1.49
-1.55
-1.58
-1.37
-0.78
0.18
1.28
2.10
2.26
1.58
0.19
-1.48
-2.98
-4.03
-4.60
-4.90
-5.20
-5.56
-5.87
-5.89
-5.48
-4.69
-3.72
-2.81
-2.07
-1.48
-0.84
-0.03
1.01
2.17
3.28
4.10
4.49
4.42
4.01
3.51
3.21
3.25
3.60
4.07
4.38
4.33
3.89
3.17
2.36
1.62
1.07
0.75
0.67
0.78
1.00
1.17
1.17
0.94
0.49
-0.05
-0.57
-0.99
-1.22
-1.25
-1.06
-0.68
-0.21
0.23
0.51
0.62
0.62
0.61
0.63
0.68
0.71
0.73
0.82
1.12
1.62
2.24
2.72
2.89
2.70
2.27
1.81
1.45
1.18
0.87
0.43
-0.12
-0.62
-0.91
-0.87
-0.55
-0.14
0.18
0.27
0.08
-0.34
-0.87
-1.39
-1.72
-1.77
-1.49
-0.92
-0.19
0.58
1.28
1.91
2.41
2.73
2.74
2.37
1.62
0.64
-0.34
-1.04
-1.24
-0.82
0.23
1.79
3.69
5.65
7.43
8.89
10.01
10.97
11.97
13.15
14.48
15.77
16.76
17.15
16.66
15.09
12.40
8.76
4.62
0.65
-2.54
-4.55
-5.37
-5.35
-4.96
-4.52
-4.13
-3.72
-3.22
-2.77
-2.62
-3.02
-4.00
-5.35
-6.66
-7.60
-7.99
-7.91
-7.61
-7.31
-7.09
-6.92
-6.68
-6.27
-5.67
-4.94
-4.19
-3.50
-2.91
-2.44
-2.14
-2.05
-2.22
-2.67
-3.31
-3.97
-4.51
-4.82
-4.92
-4.89
-4.80
-4.65
-4.39
-3.93
-3.22
-2.27
-1.13
0.10
1.30
2.26
2.68
2.29
1.05
-0.84
-2.94
-4.70
-5.75
-6.04
-5.82
-5.44
-5.19
-5.15
-5.21
-5.22
-5.03
-4.58
-3.87
-2.96
-1.96
-0.95
-0.00
0.86
1.69
2.52
3.30
3.90
4.11
3.83
3.16
2.38
1.82
1.72
2.06
2.60
3.05
3.24
3.17
3.00
2.86
2.80
2.74
2.54
2.09
1.41
0.63
-0.07
-0.49
-0.56
-0.34
-0.03
0.17
0.12
-0.18
-0.58
-0.92
-1.07
-0.99
-0.73
-0.35
0.14
0.64
1.05
1.25
1.18
0.97
0.88
1.22
2.07
3.21
4.08
4.14
3.13
1.28
-0.77
-2.23
-2.49
-1.44
0.65
3.21
5.64
7.54
8.76
9.42
9.78
10.12
10.62
11.29
11.99
12.47
12.43
11.61
9.87
7.18
3.71
-0.27
-4.35
-8.16
-11.37
-13.79
-15.33
-16.01
-15.90
-15.14
-13.91
-12.44
-10.99
-9.74
-8.80
-8.17
-7.82
-7.72
-7.87
-8.23
-8.62
-8.74
-8.29
-7.13
-5.46
-3.78
-2.68
-2.58
-3.53
-5.22
-7.13
-8.76
-9.73
-9.88
-9.23
-7.92
-6.20
-4.36
-2.67
-1.32
-0.30
0.46
1.14
1.82
2.52
3.22
3.91
4.60
5.30
5.94
6.41
6.65
6.65
6.57
6.66
7.15
8.11
9.46
10.90
12.03
12.48
12.05
10.78
9.02
7.25
5.88
5.17
5.07
5.31
5.55
5.55
5.23
4.67
3.98
3.32
2.82
2.57
2.64
3.06
3.70
4.33
4.61
4.21
3.01
1.21
-0.77
-2.39
-3.23
-3.15
-2.37
-1.22
-0.02
1.08
2.08
2.99
3.71
4.00
3.66
2.65
1.26
-0.03
-0.76
-0.70
0.06
1.21
2.36
3.21
3.62
3.54
2.99
2.03
0.77
-0.63
-1.93
-2.96
-3.63
-4.01
-4.19
-4.26
-4.24
-4.10
-3.83
-3.45
-3.02
-2.60
-2.19
-1.73
-1.14
-0.41
0.42
1.25
2.02
2.73
3.47
4.35
5.42
6.71
8.15
9.64
11.02
12.07
12.67
12.83
12.77
12.80
13.31
14.43
16.07
17.81
19.19
19.82
19.56
18.56
17.10
15.51
14.03
12.70
11.45
10.04
8.24
5.87
2.93
-0.34
-3.57
-6.35
-8.42
-9.69
-10.31
-10.58
-10.77
-11.08
-11.55
-12.07
-12.46
-12.50
-12.09
-11.23
-10.07
-8.80
-7.60
-6.58
-5.78
-5.21
-4.94
-5.01
-5.43
-6.11
-6.81
-7.28
-7.34
-6.91
-6.15
-5.27
-4.51
-3.93
-3.48
-3.00
-2.38
-1.68
-1.14
-1.09
-1.77
-3.21
-5.19
-7.34
-9.30
-10.85
-11.96
-12.71
-13.21
-13.52
-13.62
-13.55
-13.40
-13.31
-13.38
-13.65
-14.06
-14.56
-15.07
-15.57
-16.05
-16.52
-16.98
-17.50
-18.11
-18.83
-19.62
-20.40
-21.12
-21.81
-22.60
-23.61
-24.83
-26.01
-26.70
-26.48
-25.10
-22.63
-19.47
-16.11
-13.04
-10.52
-8.60
-7.09
-5.75
-4.34
-2.71
-0.89
1.03
2.94
4.82
6.67
8.59
10.61
12.68
14.65
16.44
18.05
19.60
21.31
23.33
25.73
28.51
31.61
34.95
38.43
41.90
45.09
47.66
49.30
49.83
49.33
48.05
46.28
44.22
41.86
38.95
35.22
30.47
24.74
18.32
11.64
5.08
-1.08
-6.75
-11.89
-16.39
-20.07
-22.60
-23.72
-23.38
-21.83
-19.64
-17.52
-16.13
-15.88
-16.85
-18.80
-21.35
-24.03
-26.53
-28.65
-30.36
-31.71
-32.78
-33.57
-34.03
-34.02
-33.41
-32.11
-30.16
-27.68
-24.91
-22.18
-19.87
-18.38
-18.07
-19.11
-21.31
-24.08
-26.39
-27.12
-25.45
-21.24
-15.04
-7.94
-0.98
5.27
10.87
16.41
22.53
29.53
37.12
44.54
50.85
55.26
57.39
57.30
55.37
52.13
48.11
43.78
39.47
35.47
31.95
29.03
26.68
24.75
22.99
21.15
19.01
16.53
13.80
11.04
8.51
6.46
5.00
4.14
3.75
3.64
3.58
3.40
3.00
2.33
1.45
0.45
-0.55
-1.43
-2.17
-2.78
-3.34
-3.90
-4.43
-4.87
-5.19
-5.41
-5.71
-6.27
-7.26
-8.67
-10.24
-11.65
-12.56
-12.82
-12.50
-11.82
-10.97
-10.07
-9.05
-7.84
-6.45
-5.02
-3.82
-3.09
-2.93
-3.24
-3.77
-4.23
-4.46
-4.47
-4.40
-4.43
-4.75
-5.41
-6.39
-7.52
-8.58
-9.31
-9.58
-9.42
-9.06
-8.82
-8.94
-9.50
-10.34
-11.12
-11.56
-11.54
-11.21
-10.86
-10.82
-11.24
-12.02
-12.88
-13.46
-13.47
-12.80
-11.53
-9.90
-8.16
-6.62
-5.55
-5.11
-5.29
-5.86
-6.42
-6.55
-6.01
-4.84
-3.36
-1.95
-0.90
-0.18
0.39
1.06
1.92
2.85
3.67
4.24
4.57
4.85
5.26
5.89
6.69
7.44
7.86
7.75
7.08
6.01
4.85
3.95
3.51
3.56
3.90
4.25
4.39
4.26
3.93
3.55
3.19
2.84
2.45
1.99
1.46
0.88
0.24
-0.53
-1.46
-2.49
-3.47
-4.16
-4.44
-4.31
-3.91
-3.44
-3.06
-2.85
-2.81
-2.90
-3.04
-3.16
-3.10
-2.73
-1.98
-0.90
0.31
1.40
2.16
2.51
2.53
2.39
2.20
2.06
2.00
2.04
2.26
2.72
3.47
4.40
5.37
6.13
6.46
6.25
5.52
4.43
3.19
2.05
1.15
0.55
0.19
-0.04
-0.25
-0.52
-0.84
-1.18
-1.48
-1.76
-2.05
-2.37
-2.73
-3.07
-3.26
-3.19
-2.81
-2.17
-1.43
-0.79
-0.38
-0.17
-0.01
0.25
0.69
1.15
1.47
1.47
1.20
0.87
0.71
0.82
1.02
1.04
0.60
-0.29
-1.30
-1.99
-1.98
-1.22
0.04
1.39
2.48
3.19
3.68
4.17
4.81
5.52
6.03
6.06
5.49
4.50
3.42
2.61
2.24
2.25
2.40
2.46
2.35
2.14
1.97
1.89
1.89
1.84
1.63
1.15
0.41
-0.55
-1.61
-2.62
-3.46
-4.04
-4.38
-4.58
-4.76
-4.94
-5.08
-5.08
-4.88
-4.57
-4.29
-4.19
-4.32
-4.62
-4.98
-5.34
-5.71
-6.07
-6.37
-6.39
-5.93
-4.93
-3.51
-1.98
-0.68
0.18
0.57
0.67
0.67
0.71
0.83
1.00
1.15
1.23
1.21
1.14
1.12
1.28
1.68
2.31
3.02
3.65
4.08
4.33
4.56
4.94
5.58
6.41
7.25
7.89
8.16
8.04
7.60
6.93
6.13
5.25
4.30
3.31
2.28
1.27
0.37
-0.32
-0.78
-1.02
-1.10
-1.11
-1.06
-0.95
-0.77
-0.56
-0.42
-0.46
-0.64
-0.84
-0.86
-0.54
0.06
0.75
1.26
1.42
1.28
1.08
1.06
1.40
2.05
2.83
3.53
4.03
4.32
4.46
4.45
4.24
3.73
2.91
1.85
0.80
0.04
-0.23
0.03
0.70
1.58
2.40
3.00
3.25
3.14
2.69
2.00
1.24
0.59
0.20
0.07
0.11
0.09
-0.13
-0.55
-1.04
-1.38
-1.42
-1.18
-0.83
-0.54
-0.46
-0.54
-0.64
-0.63
-0.42
-0.05
0.40
0.86
1.28
1.67
1.99
2.21
2.31
2.30
2.29
2.36
2.61
3.03
3.59
4.19
4.76
5.21
5.48
5.52
5.30
4.87
4.34
3.82
3.39
2.99
2.53
1.92
1.13
0.30
-0.42
-0.95
-1.32
-1.65
-2.09
-2.66
-3.25
-3.72
-3.98
-4.06
-4.07
-4.09
-4.10
-4.00
-3.73
-3.33
-2.95
-2.79
-2.93
-3.32
-3.82
-4.28
-4.66
-4.98
-5.29
-5.58
-5.75
-5.70
-5.44
-5.09
-4.84
-4.81
-4.94
-5.05
-4.90
-4.34
-3.43
-2.40
-1.52
-0.95
-0.70
-0.60
-0.45
-0.06
0.56
1.26
1.87
2.28
2.54
2.80
3.18
3.68
4.13
4.31
4.07
3.49
2.82
2.34
2.21
2.40
2.69
2.87
2.84
2.65
2.47
2.43
2.52
2.65
2.70
2.58
2.36
2.18
2.18
2.37
2.68
2.97
3.17
3.28
3.35
3.39
3.26
2.82
2.02
0.98
-0.00
-0.66
-0.88
-0.85
-0.81
-0.99
-1.33
-1.63
-1.66
-1.38
-0.94
-0.60
-0.53
-0.74
-1.07
-1.31
-1.35
-1.15
-0.82
-0.43
-0.10
0.15
0.30
0.42
0.56
0.82
1.20
1.68
2.16
2.52
2.71
2.69
2.50
2.21
1.89
1.64
1.54
1.60
1.74
1.84
1.79
1.55
1.18
0.79
0.46
0.14
-0.22
-0.65
-1.04
-1.20
-1.00
-0.47
0.10
0.31
-0.13
-1.20
-2.58
-3.73
-4.25
-4.05
-3.34
-2.49
-1.83
-1.48
-1.35
-1.30
-1.21
-1.06
-0.90
-0.77
-0.64
-0.44
-0.11
0.35
0.86
1.32
1.59
1.62
1.40
0.99
0.45
-0.09
-0.56
-0.86
-0.93
-0.74
-0.29
0.33
1.00
1.58
1.98
2.15
2.15
2.13
2.22
2.48
2.83
3.07
2.97
2.39
1.39
0.17
-0.93
-1.68
-1.98
-1.93
-1.73
-1.55
-1.47
-1.49
-1.57
-1.73
-2.03
-2.47
-2.99
-3.41
-3.59
-3.48
-3.23
-3.04
-3.06
-3.23
-3.33
-3.12
-2.49
-1.56
-0.64
-0.07
-0.01
-0.40
-0.94
-1.27
-1.16
-0.62
0.10
0.65
0.74
0.30
-0.49
-1.29
-1.74
-1.71
-1.27
-0.67
-0.19
-0.02
-0.14
-0.43
-0.74
-1.01
-1.27
-1.61
-2.03
-2.48
-2.79
-2.85
-2.65
-2.30
-1.96
-1.78
-1.76
-1.85
-1.94
-1.91
-1.79
-1.62
-1.48
-1.43
-1.48
-1.62
-1.80
-2.02
-2.29
-2.60
-2.91
-3.12
-3.13
-2.86
-2.33
-1.67
-1.05
-0.62
-0.43
-0.39
-0.33
-0.12
0.32
0.89
1.41
1.68
1.61
1.21
0.63
0.10
-0.17
-0.06
0.41
1.08
1.71
2.12
2.22
2.11
1.99
2.04
2.37
2.91
3.49
3.91
4.05
3.88
3.50
3.01
2.48
1.93
1.38
0.87
0.48
0.31
0.38
0.67
1.04
1.35
1.49
1.45
1.26
0.99
0.68
0.34
-0.01
-0.30
-0.41
-0.23
0.27
0.99
1.73
2.27
2.52
2.56
2.59
2.84
3.40
4.17
4.88
5.29
5.24
4.79
4.14
3.49
2.95
2.52
2.14
1.81
1.58
1.54
1.73
2.10
2.50
2.79
2.88
2.77
2.53
2.20
1.79
1.30
0.70
0.02
-0.64
-1.13
-1.33
-1.16
-0.71
-0.18
0.16
0.13
-0.29
-0.94
-1.60
-2.07
-2.32
-2.42
-2.46
-2.49
-2.51
-2.50
-2.48
-2.50
-2.57
-2.58
-2.34
-1.71
-0.69
0.48
1.48
1.98
1.88
1.26
0.38
-0.53
-1.31
-1.92
-2.36
-2.61
-2.66
-2.51
-2.16
-1.69
-1.20
-0.78
-0.54
-0.49
-0.64
-0.89
-1.16
-1.36
-1.45
-1.45
-1.39
-1.31
-1.22
-1.10
-0.98
-0.89
-0.84
-0.85
-0.83
-0.72
-0.49
-0.20
0.04
0.12
0.01
-0.16
-0.26
-0.19
-0.01
0.15
0.14
-0.10
-0.48
-0.82
-0.97
-0.88
-0.60
-0.27
-0.00
0.14
0.16
0.12
0.08
0.08
0.12
0.21
0.30
0.38
0.39
0.33
0.23
0.15
0.14
0.22
0.37
0.49
0.51
0.35
0.02
-0.44
-0.89
-1.24
-1.40
-1.41
-1.33
-1.25
-1.23
-1.28
-1.32
-1.26
-1.10
-0.85
-0.64
-0.57
-0.71
-1.05
-1.47
-1.86
-2.08
-2.13
-2.05
-1.98
-2.06
-2.34
-2.79
-3.28
-3.69
-3.99
-4.22
-4.49
-4.80
-5.12
-5.33
-5.33
-5.06
-4.53
-3.79
-2.89
-1.89
-0.90
-0.02
0.65
1.11
1.49
1.96
2.64
3.47
4.30
4.89
5.13
5.09
4.89
4.67
4.47
4.26
3.99
3.67
3.37
3.19
3.19
3.34
3.54
3.64
3.58
3.32
2.97
2.66
2.51
2.57
2.78
3.02
3.12
3.02
2.73
2.32
1.82
1.20
0.45
-0.38
-1.13
-1.59
-1.61
-1.24
-0.71
-0.32
-0.26
-0.48
-0.78
-0.89
-0.71
-0.28
0.22
0.66
0.98
1.24
1.49
1.73
1.85
1.81
1.63
1.47
1.49
1.77
2.23
2.68
2.98
3.05
3.00
2.94
2.98
3.08
3.16
3.18
3.16
3.22
3.46
3.90
4.44
4.91
5.18
5.28
5.29
5.35
5.53
5.77
5.95
5.92
5.63
5.18
4.73
4.42
4.29
4.31
4.35
4.37
4.38
4.49
4.73
5.05
5.20
4.90
3.93
2.26
0.13
-2.11
-4.13
-5.74
-6.99
-8.00
-8.87
-9.59
-10.03
-10.03
-9.50
-8.51
-7.28
-6.04
-4.98
-4.18
-3.66
-3.37
-3.27
-3.32
-3.41
-3.44
-3.27
-2.82
-2.07
-1.06
0.12
1.40
2.71
4.00
5.15
6.07
6.64
6.82
6.71
6.46
6.29
6.33
6.51
6.65
6.49
5.87
4.84
3.63
2.60
2.04
2.06
2.53
3.16
3.62
3.72
3.44
2.90
2.28
1.74
1.34
1.13
1.10
1.25
1.58
2.03
2.42
2.51
2.06
0.97
-0.62
-2.35
-3.78
-4.59
-4.71
-4.33
-3.77
-3.35
-3.19
-3.25
-3.37
-3.41
-3.32
-3.10
-2.80
-2.44
-2.01
-1.45
-0.72
0.17
1.14
2.07
2.80
3.24
3.32
3.11
2.69
2.19
1.72
1.35
1.10
0.99
0.98
1.03
1.06
1.00
0.81
0.50
0.11
-0.33
-0.81
-1.32
-1.83
-2.24
-2.42
-2.34
-2.06
-1.77
-1.71
-1.99
-2.54
-3.11
-3.45
-3.36
-2.82
-1.93
-0.82
0.31
1.28
1.90
1.98
1.50
0.62
-0.36
-1.09
-1.39
-1.32
-1.08
-0.90
-0.83
-0.78
-0.57
-0.07
0.63
1.38
1.96
2.22
2.13
1.77
1.28
0.87
0.66
0.68
0.79
0.80
0.51
-0.09
-0.87
-1.55
-1.93
-1.93
-1.68
-1.33
-0.99
-0.62
-0.19
0.31
0.76
0.99
0.89
0.49
-0.03
-0.49
-0.72
-0.68
-0.45
-0.09
0.28
0.58
0.69
0.53
0.08
-0.51
-1.04
-1.25
-1.01
-0.33
0.68
1.78
2.74
3.31
3.30
2.66
1.50
0.08
-1.30
-2.39
-3.15
-3.70
-4.20
-4.75
-5.29
-5.68
-5.78
-5.58
-5.16
-4.63
-4.08
-3.52
-2.97
-2.51
-2.21
-2.13
-2.18
-2.21
-2.03
-1.54
-0.80
0.02
0.72
1.13
1.24
1.15
1.01
0.94
0.96
1.01
0.98
0.82
0.61
0.47
0.54
0.87
1.34
1.78
2.02
2.03
1.94
1.89
2.00
2.25
2.48
2.53
2.35
1.96
1.48
1.03
0.73
0.64
0.77
1.08
1.39
1.45
0.99
-0.17
-1.98
-4.15
-6.23
-7.84
-8.76
-9.09
-9.04
-8.89
-8.75
-8.63
-8.42
-8.05
-7.53
-7.01
-6.64
-6.51
-6.61
-6.80
-6.92
-6.89
-6.72
-6.50
-6.26
-5.98
-5.53
-4.83
-3.90
-2.93
-2.18
-1.84
-1.89
-2.11
-2.18
-1.87
-1.15
-0.19
0.76
1.43
1.71
1.63
1.30
0.85
0.45
0.20
0.28
0.90
2.30
4.53
7.38
10.33
12.75
14.16
14.43
13.87
13.01
12.33
12.04
12.08
12.28
12.59
13.16
14.21
15.84
17.84
19.74
21.03
21.38
20.76
19.41
17.68
15.80
13.85
11.71
9.19
6.15
2.62
-1.23
-5.13
-8.84
-12.31
-15.65
-19.07
-22.70
-26.44
-29.91
-32.51
-33.72
-33.25
-31.23
-28.06
-24.30
-20.45
-16.78
-13.36
-10.12
-6.99
-3.88
-0.70
2.73
6.74
11.77
18.25
26.35
35.78
45.75
55.14
62.74
67.73
69.87
69.55
67.53
64.59
61.23
57.48
53.15
48.01
42.08
35.72
29.53
24.09
19.68
16.21
13.20
10.05
6.27
1.70
-3.45
-8.74
-13.68
-17.92
-21.27
-23.70
-25.24
-25.96
-25.93
-25.29
-24.29
-23.22
-22.36
-21.81
-21.53
-21.36
-21.15
-20.97
-21.06
-21.73
-23.20
-25.39
-27.93
-30.25
-31.81
-32.29
-31.70
-30.34
-28.60
-26.87
-25.29
-23.83
-22.40
-20.96
-19.69
-18.82
-18.60
-19.01
-19.76
-20.37
-20.31
-19.29
-17.31
-14.66
-11.78
-9.20
-7.33
-6.38
-6.34
-6.92
-7.65
-8.12
-8.12
-7.75
-7.33
-7.13
-7.18
-7.25
-6.95
-6.03
-4.51
-2.69
-0.97
0.34
1.11
1.43
1.42
1.21
0.92
0.62
0.40
0.30
0.37
0.60
0.99
1.54
2.27
3.15
4.04
4.77
5.16
5.15
4.85
4.46
4.16
4.05
4.03
3.96
3.64
3.00
2.09
1.08
0.20
-0.36
-0.49
-0.27
0.10
0.39
0.38
0.03
-0.57
-1.20
-1.63
-1.73
-1.45
-0.86
-0.16
0.43
0.65
0.32
-0.53
-1.67
-2.70
-3.27
-3.26
-2.84
-2.33
-2.05
-2.08
-2.28
-2.36
-2.13
-1.57
-0.86
-0.25
0.10
0.12
-0.12
-0.53
-1.01
-1.49
-1.99
-2.51
-3.09
-3.74
-4.39
-4.91
-5.23
-5.36
-5.46
-5.80
-6.52
-7.63
-8.89
-9.97
-10.60
-10.71
-10.52
-10.34
-10.44
-10.88
-11.59
-12.36
-13.01
-13.43
-13.58
-13.46
-13.02
-12.24
-11.06
-9.46
-7.47
-5.22
-2.94
-0.92
0.53
1.25
1.25
0.77
0.16
-0.27
-0.35
-0.10
0.40
1.02
1.76
2.67
3.76
4.95
6.06
6.87
7.26
7.26
7.07
6.95
7.10
7.57
8.22
8.81
9.15
9.14
8.87
8.52
8.31
8.32
8.51
8.74
8.86
8.76
8.41
7.84
7.06
6.11
5.10
4.14
3.41
3.04
3.08
3.46
4.01
4.52
4.84
4.88
4.60
4.09
3.43
2.77
2.18
1.78
1.65
1.87
2.47
3.35
4.24
4.79
4.69
3.80
2.30
0.61
-0.82
-1.63
-1.72
-1.23
-0.45
0.39
1.12
1.71
2.12
2.28
2.11
1.56
0.68
-0.35
-1.26
-1.82
-1.91
-1.56
-0.98
-0.39
0.05
0.27
0.31
0.26
0.22
0.23
0.27
0.28
0.26
0.22
0.23
0.37
0.66
1.06
1.43
1.66
1.71
1.64
1.59
1.67
1.88
2.13
2.29
2.27
2.03
1.63
1.14
0.68
0.30
0.09
0.08
0.25
0.47
0.54
0.28
-0.37
-1.23
-2.00
-2.40
-2.30
-1.79
-1.11
-0.55
-0.26
-0.26
-0.41
-0.54
-0.45
-0.01
0.79
1.82
2.81
3.47
3.59
3.21
2.59
2.07
1.88
2.02
2.28
2.40
2.26
1.95
1.68
1.64
1.83
2.11
2.30
2.29
2.11
1.88
1.74
1.77
2.00
2.41
2.97
3.58
4.10
4.40
4.36
4.03
3.52
3.05
2.74
2.60
2.52
2.34
2.00
1.59
1.28
1.23
1.38
1.55
1.45
0.91
-0.01
-1.03
-1.79
-2.08
-1.95
-1.64
-1.47
-1.55
-1.80
-2.00
-1.92
-1.51
-0.90
-0.35
-0.05
-0.09
-0.37
-0.70
-0.88
-0.78
-0.39
0.18
0.74
1.13
1.24
1.12
0.91
0.80
0.87
1.10
1.39
1.62
1.76
1.86
1.96
2.07
2.08
1.89
1.46
0.86
0.29
-0.13
-0.32
-0.40
-0.50
-0.72
-1.01
-1.22
-1.20
-0.89
-0.35
0.28
0.83
1.18
1.26
0.99
0.35
-0.66
-1.90
-3.20
-4.33
-5.18
-5.74
-6.09
-6.34
-6.50
-6.50
-6.26
-5.79
-5.21
-4.74
-4.54
-4.65
-4.99
-5.41
-5.78
-6.01
-6.09
-6.03
-5.91
-5.83
-5.93
-6.28
-6.93
-7.76
-8.56
-9.14
-9.35
-9.20
-8.80
-8.23
-7.51
-6.58
-5.27
-3.51
-1.32
1.11
3.57
5.88
8.00
10.01
12.06
14.25
16.52
18.67
20.40
21.49
21.85
21.59
20.94
20.09
19.21
18.37
17.60
16.85
16.05
14.97
13.34
10.96
7.83
4.26
0.78
-2.10
-4.13
-5.41
-6.32
-7.28
-8.46
-9.80
-10.97
-11.69
-11.82
-11.50
-11.00
-10.58
-10.37
-10.26
-10.02
-9.39
-8.25
-6.73
-5.15
-3.89
-3.21
-3.10
-3.31
-3.48
-3.34
-2.88
-2.29
-1.85
-1.75
-1.93
-2.23
-2.37
-2.24
-1.85
-1.34
-0.85
-0.46
-0.13
0.21
0.66
1.27
2.00
2.80
3.51
4.04
4.27
4.21
3.91
3.52
3.19
3.01
3.03
3.18
3.36
3.46
3.38
3.08
2.58
1.95
1.29
0.68
0.18
-0.20
-0.49
-0.75
-0.98
-1.19
-1.35
-1.40
-1.29
-0.98
-0.44
0.29
1.10
1.80
2.24
2.34
2.22
2.11
2.25
2.76
3.56
4.41
5.05
5.31
5.16
4.72
4.16
3.58
3.03
2.50
1.96
1.40
0.86
0.40
0.06
-0.15
-0.24
-0.28
-0.29
-0.27
-0.17
0.06
0.38
0.69
0.76
0.46
-0.22
-1.08
-1.85
-2.29
-2.30
-1.97
-1.44
-0.83
-0.21
0.35
0.69
0.66
0.13
-0.87
-2.08
-3.20
-3.97
-4.30
-4.29
-4.10
-3.82
-3.46
-2.97
-2.35
-1.71
-1.17
-0.80
-0.56
-0.32
0.05
0.57
1.18
1.75
2.12
2.17
1.86
1.25
0.47
-0.24
-0.70
-0.80
-0.54
-0.06
0.49
1.00
1.39
1.66
1.77
1.69
1.41
1.00
0.59
0.36
0.38
0.65
1.03
1.31
1.37
1.17
0.80
0.36
-0.01
-0.27
-0.39
-0.35
-0.08
0.49
1.36
2.36
3.17
3.42
2.86
1.51
-0.26
-1.95
-3.13
-3.65
-3.61
-3.28
-2.86
-2.43
-1.93
-1.30
-0.58
0.05
0.42
0.42
0.15
-0.24
-0.56
-0.69
-0.67
-0.61
-0.60
-0.70
-0.87
-1.00
-1.02
-0.88
-0.66
-0.50
-0.57
-0.92
-1.46
-1.93
-2.06
-1.68
-0.81
0.27
1.21
1.69
1.54
0.85
-0.10
-0.94
-1.37
-1.26
-0.69
0.11
0.86
1.35
1.52
1.42
1.22
1.05
1.01
1.14
1.46
1.93
2.47
2.94
3.08
2.72
1.80
0.48
-0.95
-2.17
-3.00
-3.44
-3.61
-3.65
-3.58
-3.33
-2.84
-2.12
-1.35
-0.73
-0.45
-0.49
-0.67
-0.77
-0.60
-0.16
0.43
0.96
1.24
1.20
0.86
0.38
-0.06
-0.30
-0.26
0.04
0.42
0.75
0.93
0.97
1.05
1.32
1.87
2.58
3.23
3.56
3.41
2.83
1.99
1.17
0.56
0.29
0.32
0.59
0.99
1.46
1.93
2.29
2.43
2.21
1.53
0.48
-0.68
-1.70
-2.31
-2.52
-2.52
-2.58
-2.90
-3.47
-4.06
-4.40
-4.30
-3.76
-2.95
-2.12
-1.46
-1.04
-0.81
-0.68
-0.54
-0.38
-0.22
-0.13
-0.13
-0.21
-0.30
-0.32
-0.26
-0.13
0.01
0.12
0.21
0.37
0.67
1.16
1.76
2.36
2.82
3.05
3.05
2.81
2.36
1.69
0.82
-0.17
-1.11
-1.83
-2.16
-2.05
-1.55
-0.79
0.12
1.06
1.96
2.70
3.13
3.07
2.48
1.44
0.17
-1.01
-1.86
-2.26
-2.27
-2.00
-1.62
-1.26
-1.01
-0.94
-1.04
-1.23
-1.39
-1.40
-1.20
-0.89
-0.59
-0.42
-0.40
-0.44
-0.43
-0.39
-0.39
-0.58
-1.02
-1.63
-2.21
-2.54
-2.50
-2.14
-1.63
-1.18
-0.93
-0.95
-1.16
-1.48
-1.84
-2.17
-2.42
-2.51
-2.37
-2.00
-1.49
-1.00
-0.70
-0.70
-0.89
-1.07
-0.96
-0.39
0.59
1.70
2.55
2.85
2.48
1.61
0.60
-0.21
-0.58
-0.53
-0.27
-0.09
-0.20
-0.64
-1.26
-1.88
-2.37
-2.68
-2.92
-3.20
-3.56
-3.93
-4.21
-4.28
-4.14
-3.84
-3.53
-3.35
-3.42
-3.82
-4.55
-5.56
-6.67
-7.67
-8.36
-8.63
-8.48
-7.97
-7.12
-5.83
-4.00
-1.59
1.24
4.15
6.85
9.18
11.27
13.43
15.91
18.74
21.68
24.32
26.33
27.55
27.98
27.71
26.75
25.14
22.86
20.06
16.90
13.51
9.91
6.02
1.80
-2.64
-6.98
-10.79
-13.68
-15.43
-16.04
-15.68
-14.56
-12.95
-11.13
-9.40
-8.06
-7.37
-7.49
-8.49
-10.42
-13.38
-17.51
-22.79
-28.95
-35.31
-40.91
-44.84
-46.54
-45.95
-43.51
-39.83
-35.39
-30.37
-24.67
-18.10
-10.68
-2.76
5.02
11.94
17.45
21.41
24.14
26.40
29.11
33.08
38.77
46.09
54.47
63.06
70.97
77.50
82.24
85.09
86.17
85.82
84.54
82.92
81.47
80.46
79.80
78.98
77.34
74.34
69.83
64.09
57.64
50.92
44.19
37.44
30.61
23.75
17.13
11.02
5.55
0.54
-4.37
-9.50
-14.89
-20.30
-25.36
-29.89
-34.03
-38.19
-42.72
-47.65
-52.59
-56.78
-59.53
-60.52
-59.94
-58.43
-56.80
-55.67
-55.29
-55.54
-56.12
-56.74
-57.24
-57.67
-58.17
-58.86
-59.79
-60.93
-62.20
-63.54
-64.87
-65.95
-66.39
-65.61
-63.12
-58.69
-52.57
-45.41
-37.99
-30.93
-24.41
-18.23
-12.12
-5.92
0.22
5.92
10.85
14.87
18.08
20.69
22.89
24.71
26.11
27.00
27.33
27.22
26.83
26.34
25.87
25.41
24.78
23.75
22.11
19.79
17.02
14.13
11.46
9.14
7.01
4.78
2.26
-0.48
-3.10
-5.14
-6.32
-6.69
-6.64
-6.64
-7.02
-7.85
-8.93
-9.94
-10.63
-10.91
-10.90
-10.79
-10.83
-11.20
-11.96
-13.10
-14.51
-16.11
-17.84
-19.66
-21.53
-23.34
-24.95
-26.22
-27.06
-27.39
-27.16
-26.23
-24.41
-21.57
-17.75
-13.28
-8.70
-4.61
-1.44
0.69
1.94
2.66
3.16
3.63
4.10
4.50
4.72
4.76
4.69
4.65
4.75
4.98
5.20
5.19
4.78
3.93
2.74
1.36
-0.07
-1.48
-2.82
-4.06
-5.11
-5.84
-6.14
-5.95
-5.27
-4.12
-2.59
-0.82
0.96
2.50
3.64
4.41
5.00
5.66
6.53
7.54
8.48
9.12
9.40
9.45
9.49
9.67
9.99
10.25
10.22
9.83
9.21
8.58
8.21
8.20
8.49
8.89
9.20
9.32
9.29
9.21
9.23
9.43
9.78
10.16
10.45
10.53
10.37
10.02
9.57
9.12
8.73
8.45
8.32
8.37
8.61
9.03
9.61
10.29
10.97
11.59
12.12
12.56
13.00
13.54
14.28
15.22
16.26
17.27
18.12
18.83
19.56
20.55
21.95
23.68
25.52
27.11
28.17
28.59
28.39
27.70
26.65
25.40
24.10
22.95
22.15
21.77
21.63
21.31
20.34
18.39
15.48
11.99
8.49
5.48
3.21
1.62
0.42
-0.69
-1.97
-3.53
-5.33
-7.27
-9.21
-11.00
-12.56
-13.89
-15.04
-16.11
-17.12
-18.03
-18.79
-19.34
-19.69
-19.92
-20.14
-20.41
-20.66
-20.71
-20.39
-19.57
-18.26
-16.64
-14.99
-13.58
-12.58
-11.96
-11.60
-11.23
-10.70
-9.88
-8.76
-7.38
-5.77
-4.00
-2.21
-0.60
0.71
1.66
2.36
3.09
4.09
5.49
7.20
8.95
10.39
11.24
11.33
10.58
8.99
6.57
3.47
-0.07
-3.62
-6.71
-8.95
-10.19
-10.53
-10.28
-9.75
-9.13
-8.48
-7.77
-7.00
-6.20
-5.50
-5.03
-4.82
-4.82
-4.88
-4.86
-4.64
-4.20
-3.64
-3.12
-2.76
-2.64
-2.74
-2.89
-2.98
-2.93
-2.78
-2.63
-2.57
-2.63
-2.73
-2.75
-2.54
-2.04
-1.32
-0.53
0.08
0.36
0.29
0.02
-0.25
-0.32
-0.15
0.13
0.34
0.38
0.34
0.49
1.13
2.36
4.00
5.59
6.57
6.56
5.45
3.50
1.16
-1.06
-2.82
-3.99
-4.57
-4.72
-4.52
-4.07
-3.46
-2.77
-2.12
-1.67
-1.51
-1.61
-1.82
-1.88
-1.59
-0.91
0.02
0.88
1.35
1.30
0.80
0.11
-0.50
-0.89
-1.08
-1.21
-1.40
-1.62
-1.78
-1.69
-1.33
-0.77
-0.21
0.17
0.29
0.21
0.07
-0.01
-0.01
-0.02
-0.13
-0.41
-0.81
-1.18
-1.34
-1.11
-0.39
0.80
2.37
4.12
5.70
6.72
6.80
5.79
3.79
1.25
-1.27
-3.29
-4.55
-5.10
-5.15
-4.95
-4.60
-4.14
-3.61
-3.14
-2.93
-3.14
-3.78
-4.65
-5.42
-5.80
-5.68
-5.16
-4.48
-3.85
-3.44
-3.27
-3.29
-3.43
-3.59
-3.68
-3.60
-3.31
-2.81
-2.14
-1.43
-0.82
-0.45
-0.41
-0.72
-1.28
-1.95
-2.50
-2.76
-2.64
-2.21
-1.61
-1.04
-0.67
-0.59
-0.83
-1.32
-1.89
-2.32
-2.29
-1.62
-0.34
1.18
2.38
2.69
1.89
0.18
-1.91
-3.76
-5.04
-5.76
-6.18
-6.56
-7.00
-7.35
-7.43
-7.13
-6.53
-5.87
-5.35
-5.07
-4.96
-4.81
-4.43
-3.75
-2.81
-1.74
-0.72
0.17
0.87
1.38
1.69
1.80
1.76
1.66
1.67
1.96
2.60
3.48
4.35
4.96
5.20
5.16
5.08
5.16
5.48
5.91
6.21
6.22
5.88
5.31
4.69
4.17
3.79
3.50
3.28
3.14
3.17
3.46
4.05
4.78
5.39
5.61
5.27
4.46
3.41
2.48
1.87
1.62
1.56
1.50
1.28
0.93
0.57
0.34
0.28
0.33
0.38
0.38
0.33
0.35
0.51
0.82
1.21
1.58
1.89
2.16
2.44
2.78
3.20
3.64
4.04
4.31
4.41
4.29
3.96
3.45
2.84
2.28
1.85
1.60
1.46
1.32
1.06
0.66
0.16
-0.36
-0.83
-1.24
-1.62
-1.99
-2.33
-2.55
-2.53
-2.18
-1.46
-0.51
0.39
0.89
0.65
-0.42
-2.14
-4.12
-5.82
-6.93
-7.38
-7.35
-7.09
-6.76
-6.29
-5.52
-4.34
-2.79
-1.12
0.35
1.37
1.89
2.03
2.00
1.99
2.08
2.26
2.44
2.58
2.66
2.73
2.84
2.99
3.14
3.16
2.99
2.60
2.11
1.71
1.55
1.73
2.16
2.74
3.32
3.81
4.13
4.28
4.20
3.86
3.26
2.44
1.53
0.66
-0.03
-0.50
-0.72
-0.69
-0.38
0.25
1.13
2.08
2.80
2.98
2.46
1.37
0.06
-1.07
-1.74
-1.95
-1.88
-1.80
-1.86
-2.05
-2.25
-2.35
-2.32
-2.24
-2.22
-2.32
-2.43
-2.38
-2.03
-1.33
-0.42
0.44
0.96
0.98
0.53
-0.17
-0.84
-1.28
-1.43
-1.37
-1.23
-1.13
-1.10
-1.10
-1.13
-1.16
-1.20
-1.27
-1.38
-1.57
-1.84
-2.19
-2.59
-3.01
-3.37
-3.64
-3.78
-3.82
-3.77
-3.67
-3.52
-3.41
-3.34
-3.34
-3.36
-3.32
-3.17
-2.84
-2.37
-1.78
-1.21
-0.81
-0.75
-1.11
-1.84
-2.73
-3.46
-3.75
-3.52
-2.90
-2.18
-1.58
-1.14
-0.74
-0.15
0.75
1.92
3.15
4.18
4.89
5.28
5.42
5.43
5.34
5.15
4.85
4.42
3.93
3.42
2.98
2.63
2.43
2.39
2.52
2.78
3.13
3.52
3.90
4.29
4.68
5.05
5.36
5.51
5.44
5.10
4.51
3.74
