1610858859.00
64.000000
-0.00
-0.00
-0.00
-0.00
-0.00
-0.00
-0.00
-0.00
-0.00
-0.00
0.00
0.01
0.01
-0.00
-0.03
-0.05
-0.05
0.00
0.13
0.36
0.66
1.01
1.37
1.72
2.06
2.40
2.79
3.24
3.80
4.42
5.06
5.66
6.20
6.68
7.15
7.68
8.31
9.14
10.09
11.04
11.88
12.56
13.14
13.76
14.65
15.96
17.91
20.32
22.90
25.38
27.58
29.57
31.68
34.32
37.81
42.54
48.15
54.10
59.83
64.97
69.58
74.14
79.34
85.71
93.76
103.00
112.62
121.73
129.77
136.75
143.30
150.75
157.77
166.64
177.95
191.79
206.97
220.57
228.25
225.36
208.53
176.87
132.76
80.05
23.07
-34.94
-92.44
-149.16
-205.23
-260.37
-313.74
-363.87
-409.83
-450.91
-486.50
-515.74
-537.23
-549.22
-549.96
-538.37
-514.21
-478.67
-433.88
-382.45
-327.02
-269.84
-212.63
-156.66
-102.95
-52.37
-5.90
35.58
71.43
101.35
125.50
144.38
158.69
169.15
176.37
180.75
182.57
182.07
179.51
175.23
169.65
163.18
156.15
148.81
141.30
133.69
126.02
118.33
110.69
103.16
95.80
88.68
81.83
75.25
68.95
62.95
57.25
51.86
46.78
42.03
37.59
33.45
29.61
26.07
22.81
19.83
17.11
14.67
12.48
10.54
8.83
7.35
6.07
4.97
4.05
3.27
2.62
2.09
1.65
1.30
1.01
0.79
0.61
0.47
0.37
0.29
0.23
0.19
0.17
0.15
0.15
0.16
0.18
0.20
0.23
0.26
0.30
0.34
0.38
0.43
0.48
0.52
0.57
0.62
0.68
0.74
0.80
0.86
0.94
1.02
1.11
1.21
1.33
1.45
1.60
1.75
1.93
2.12
2.34
2.58
2.86
3.17
3.52
3.89
4.27
4.63
4.98
5.34
5.74
6.21
6.77
7.42
8.14
8.89
9.64
10.38
11.12
11.89
12.77
13.78
14.91
16.11
17.31
18.42
19.41
20.26
20.99
21.62
22.08
22.23
21.81
20.57
18.28
14.94
10.68
5.83
0.82
-3.98
-8.44
-12.63
-16.74
-20.94
-25.22
-29.28
-32.64
-34.82
-35.58
-35.13
-34.05
-33.14
-33.07
-34.10
-35.91
-37.81
-39.08
-39.24
-38.35
-36.96
-35.79
-35.57
-36.85
-39.97
-44.84
-50.69
-55.74
-57.51
-53.47
-42.24
-24.53
-3.20
17.59
34.03
43.99
47.62
46.73
43.70
40.26
37.05
33.95
30.68
27.36
24.52
22.75
22.29
22.83
23.67
23.97
23.21
21.40
19.00
16.72
15.12
14.37
14.25
14.22
13.73
12.52
10.63
8.36
6.19
4.38
2.94
1.68
0.30
-1.39
-3.42
-5.67
-8.00
-10.36
-12.77
-15.26
-17.75
-19.99
-21.53
-21.81
-20.38
-17.07
-12.30
-7.17
-3.27
-2.32
-5.70
-13.94
-26.58
-42.30
-59.19
-75.18
-88.44
-97.64
-102.17
-102.21
-98.67
-92.77
-85.63
-77.80
-69.10
-58.87
-46.47
-31.83
-15.74
0.24
14.17
24.29
29.50
29.70
25.79
19.51
12.96
8.06
6.00
6.96
10.03
13.61
16.07
16.47
15.00
12.97
12.21
14.08
18.68
24.58
29.21
29.98
25.27
15.15
1.27
-13.82
-27.63
-38.55
-46.07
-50.49
-52.37
-52.01
-49.33
-44.10
-36.49
-27.42
-18.63
-12.26
-10.07
-12.85
-19.99
-29.65
-39.30
-46.51
-49.94
-50.30
-50.85
-56.87
-73.66
-103.78
-144.84
-189.01
-225.26
-243.08
-236.42
-205.52
-156.35
-97.94
-39.25
12.96
54.78
84.81
103.63
113.59
118.61
123.50
132.41
147.42
167.60
189.66
209.57
224.29
232.83
235.96
235.14
231.33
224.88
216.03
205.94
197.05
192.46
194.49
203.43
217.12
231.74
243.36
249.34
248.98
243.28
234.24
224.10
214.93
208.33
204.86
203.53
201.29
193.42
174.99
142.88
97.63
43.83
-11.22
-60.17
-98.21
-124.42
-141.33
-152.97
-162.64
-171.66
-179.29
-183.73
-183.42
-177.63
-166.84
-152.45
-136.52
-121.57
-110.04
-103.76
-103.34
-107.90
-115.31
-122.98
-128.65
-130.92
-129.41
-124.47
-116.89
-107.62
-97.66
-87.73
-78.18
-68.81
-59.15
-49.07
-39.42
-32.05
-29.27
-32.74
-42.31
-55.79
-69.69
-80.64
-86.94
-88.96
-88.69
-88.22
-88.63
-89.57
-89.80
-88.03
-83.55
-76.12
-65.66
-51.96
-34.84
-14.80
6.62
26.95
43.61
55.01
61.21
64.06
66.33
70.71
78.99
91.71
108.33
127.70
148.58
169.88
190.87
211.12
230.43
248.77
266.28
283.08
298.88
312.55
322.02
324.50
317.36
299.08
269.83
231.49
186.81
138.36
87.61
34.83
-20.13
-76.65
-132.49
-183.77
-226.05
-255.98
-272.70
-278.10
-275.93
-270.08
-262.89
-254.62
-244.22
-230.92
-215.59
-200.76
-189.25
-182.26
-178.26
-173.47
-163.87
-147.40
-125.29
-101.53
-80.87
-66.54
-58.95
-55.96
-54.33
-51.57
-46.98
-41.51
-36.84
-34.14
-33.27
-32.78
-30.54
-24.80
-15.10
-2.46
11.05
23.22
32.59
38.79
42.28
43.80
43.87
42.74
40.58
37.74
34.84
32.55
31.35
31.43
32.76
35.21
38.58
42.60
46.84
50.76
53.93
56.17
57.52
58.00
57.47
55.60
52.15
47.23
41.43
35.67
30.90
27.78
26.64
27.62
30.77
36.07
43.40
52.45
62.64
73.26
83.43
92.17
98.41
101.11
99.59
93.97
85.25
75.13
65.32
56.92
49.99
43.78
37.33
30.04
21.85
13.11
4.15
-4.97
-14.34
-23.89
-33.11
-41.04
-46.74
-49.66
-49.97
-48.36
-45.59
-42.13
-38.02
-33.13
-27.49
-21.50
-15.74
-10.72
-6.53
-2.96
0.28
3.19
5.32
6.03
4.84
1.90
-2.02
-5.90
-8.85
-10.57
-11.24
-11.28
-11.00
-10.41
-9.39
-7.87
-6.02
-4.24
-2.99
-2.53
-2.89
-3.88
-5.12
-6.22
-6.81
-6.67
-5.78
-4.41
-3.01
-2.06
-1.86
-2.37
-3.26
-4.16
-4.79
-5.26
-5.81
-6.76
-8.14
-9.77
-11.29
-12.40
-13.04
-13.34
-13.54
-13.79
-14.09
-14.26
-14.06
-13.34
-12.10
-10.52
-8.92
-7.71
-7.25
-7.67
-8.75
-9.87
-10.22
-9.13
-6.46
-2.81
0.59
2.35
1.44
-2.30
-8.11
-14.70
-20.77
-25.63
-29.52
-33.40
-38.56
-46.11
-56.55
-69.63
-84.35
-99.18
-112.42
-122.65
-129.31
-133.05
-135.89
-140.89
-151.41
-170.08
-197.69
-232.44
-270.02
-304.44
-329.61
-341.07
-337.19
-319.25
-290.61
-255.31
-217.11
-179.41
-145.72
-119.98
-105.94
-105.50
-117.07
-135.11
-151.59
-159.02
-153.33
-135.23
-109.08
-80.09
-51.19
-21.75
11.33
50.85
96.58
144.26
186.75
216.83
229.99
226.08
209.05
185.18
160.85
140.72
126.91
119.31
116.48
116.61
118.25
120.43
122.54
124.22
125.34
126.21
127.86
132.05
140.95
156.34
178.90
207.67
240.16
272.95
302.67
327.25
346.53
362.21
376.74
391.80
406.82
418.73
423.02
415.77
395.69
364.92
328.18
290.60
255.73
224.32
194.68
163.96
129.59
90.15
45.52
-3.08
-53.05
-100.47
-140.91
-170.88
-189.24
-197.90
-200.95
-202.91
-206.71
-212.53
-217.87
-218.56
-210.40
-190.68
-159.46
-120.16
-79.31
-45.13
-25.15
-23.62
-39.82
-68.28
-101.03
-130.92
-153.72
-168.86
-178.05
-183.43
-186.08
-185.67
-180.90
-170.22
-152.30
-126.19
-91.52
-48.74
0.59
53.61
106.51
155.24
196.53
228.78
252.38
269.45
283.14
296.43
311.15
327.10
341.86
351.19
350.17
334.79
303.21
256.41
197.79
131.93
63.12
-5.58
-72.36
-135.65
-193.02
-240.87
-275.07
-292.62
-293.01
-278.81
-254.98
-227.02
-199.13
-173.01
-147.95
-122.02
-93.62
-62.37
-29.20
4.36
37.05
68.31
98.06
126.17
152.15
175.20
194.44
209.29
219.06
222.40
216.93
199.54
167.55
119.98
58.15
-14.45
-92.93
-171.92
-246.16
-311.00
-363.04
-400.94
-425.71
-440.04
-446.62
-446.46
-438.38
-420.27
-391.38
-353.89
-312.46
-271.61
-232.83
-193.26
-147.22
-89.90
-20.93
54.37
126.83
187.45
231.31
259.36
277.67
294.66
317.56
349.73
389.48
430.75
465.35
485.81
487.70
470.68
437.73
393.22
340.87
282.68
219.33
151.23
79.43
5.72
-67.85
-139.69
-208.36
-271.95
-327.50
-371.34
-400.16
-412.42
-409.15
-393.74
-370.89
-345.15
-319.82
-296.51
-275.18
-254.48
-232.22
-205.71
-172.33
-130.25
-79.31
-21.76
37.71
92.75
137.09
166.48
179.81
178.71
166.01
143.94
113.42
74.99
30.84
-14.04
-52.38
-77.09
-84.33
-75.29
-55.65
-33.03
-14.06
-2.47
1.06
-2.25
-10.68
-22.96
-38.20
-55.39
-73.11
-89.61
-103.44
-114.22
-122.84
-130.62
-138.05
-143.76
-144.66
-137.59
-121.69
-99.93
-78.15
-62.39
-55.73
-57.02
-62.19
-67.17
-70.23
-72.02
-73.52
-73.83
-69.72
-57.56
-36.14
-8.30
20.08
43.10
57.99
66.13
71.62
78.50
88.50
100.62
112.56
122.27
128.92
132.74
134.05
132.45
126.78
115.98
100.18
81.29
62.75
48.30
40.45
39.29
42.52
46.53
48.12
45.87
40.54
34.25
29.18
26.38
25.37
24.71
23.00
19.65
15.20
10.82
7.68
6.42
6.89
8.32
9.68
10.16
9.51
8.20
7.22
7.71
10.26
14.57
19.29
22.57
22.81
19.43
13.07
5.32
-2.01
-7.65
-11.23
-13.22
-14.58
-16.28
-18.93
-22.62
-26.79
-30.18
-30.99
-27.31
-17.97
-3.25
14.71
32.34
45.76
52.26
51.29
44.60
35.34
26.67
20.58
17.42
16.29
15.98
15.68
15.39
15.74
17.59
21.53
27.70
35.62
44.26
52.28
58.23
60.95
59.88
55.20
47.56
37.86
26.94
15.47
4.14
-6.15
-14.28
-19.09
-19.88
-16.74
-10.69
-3.39
3.29
8.04
10.39
10.87
10.67
11.05
12.84
16.11
20.28
24.52
28.25
31.34
34.03
36.51
38.60
39.60
38.55
34.67
27.84
18.74
8.60
-1.37
-10.55
-19.18
-28.14
-38.47
-50.59
-63.97
-77.06
-87.88
-94.67
-96.46
-93.21
-85.57
-74.58
-61.40
-47.41
-34.08
-22.86
-14.61
-9.32
-5.95
-2.90
1.42
7.89
16.48
26.35
36.07
43.78
47.38
44.75
34.44
16.53
-6.93
-32.14
-54.55
-70.33
-77.20
-74.79
-64.10
-46.92
-25.27
-1.31
22.70
44.67
62.97
76.95
87.01
94.18
99.34
102.55
103.00
99.63
92.11
81.58
70.54
61.94
57.71
57.55
58.85
57.81
51.38
38.83
22.20
5.29
-8.32
-16.74
-20.46
-21.53
-22.20
-23.82
-26.50
-29.61
-32.47
-34.80
-36.63
-37.79
-37.63
-35.07
-29.31
-20.55
-10.26
-0.91
5.10
6.48
3.74
-1.01
-5.10
-6.54
-4.86
-1.27
2.17
3.55
1.97
-2.29
-8.22
-14.69
-20.94
-26.77
-32.36
-38.15
-44.65
-52.24
-61.05
-70.85
-81.20
-91.97
-103.81
-118.30
-137.55
-163.22
-195.46
-232.33
-269.78
-302.35
-324.22
-330.52
-318.69
-289.64
-248.13
-202.08
-160.66
-131.59
-118.63
-120.40
-130.94
-141.86
-145.18
-135.77
-112.58
-78.52
-39.00
-0.02
33.67
59.65
77.98
90.43
99.39
107.00
114.68
123.24
132.93
143.32
153.26
160.89
164.37
162.83
157.21
150.28
145.56
145.69
151.10
159.75
168.07
172.73
172.11
167.14
160.69
156.23
156.26
161.15
169.08
176.85
181.17
179.89
172.46
159.65
142.74
122.61
99.37
72.61
41.98
7.50
-30.36
-70.85
-112.70
-153.46
-188.89
-213.02
-219.46
-203.71
-165.32
-108.91
-43.20
21.38
75.79
114.38
135.52
140.81
133.76
118.78
100.67
84.23
73.54
70.91
75.77
84.52
91.45
90.65
78.26
53.87
20.55
-16.55
-52.17
-82.63
-106.59
-124.62
-138.13
-148.05
-154.32
-155.60
-149.70
-134.36
-108.25
-72.11
-29.68
11.96
43.83
57.96
50.93
25.93
-7.72
-38.13
-55.61
-56.13
-41.96
-19.50
4.26
24.22
37.91
44.65
44.37
37.23
23.93
6.21
-13.28
-31.78
-47.30
-59.08
-67.31
-72.61
-75.72
-77.22
-77.42
-76.21
-72.92
-66.58
-56.41
-42.45
-25.74
-8.08
8.77
23.60
36.22
47.35
58.24
70.22
84.31
100.83
119.23
138.19
156.06
171.49
184.10
194.67
204.58
214.73
224.43
231.11
231.05
221.08
200.35
171.20
138.77
109.51
89.21
81.38
86.45
102.03
123.68
146.07
163.91
172.85
170.17
155.20
129.39
95.87
58.53
21.06
-13.81
-44.53
-70.46
-91.42
-107.24
-117.75
-123.11
-124.19
-122.80
-121.27
-121.64
-124.82
-130.05
-135.17
-137.37
-134.30
-124.94
-109.84
-90.82
-70.23
-50.21
-32.47
-18.30
-8.78
-4.76
-6.48
-13.00
-22.00
-30.36
-35.43
-36.35
-34.53
-32.96
-34.59
-40.68
-50.12
-60.12
-67.69
-71.16
-70.60
-67.29
-62.66
-57.63
-52.64
-48.30
-45.80
-46.65
-51.76
-60.44
-70.21
-77.57
-79.48
-74.68
-64.25
-51.20
-39.33
-32.11
-31.76
-38.95
-52.61
-70.27
-88.58
-104.13
-114.30
-117.93
-115.39
-108.16
-98.14
-86.98
-75.83
-65.31
-55.75
-47.23
-39.72
-33.04
-27.03
-21.59
-16.70
-12.30
-8.13
-3.60
2.02
9.45
19.03
30.64
43.71
57.46
71.14
84.28
96.76
108.65
119.87
129.76
136.92
139.54
136.17
126.50
111.91
95.11
79.23
66.63
58.23
53.42
50.67
48.23
44.84
39.92
33.50
25.97
17.95
10.14
3.21
-2.29
-6.04
-7.93
-7.98
-6.27
-2.96
1.62
6.93
12.27
17.04
20.97
24.24
27.45
31.18
35.70
40.63
45.12
48.22
49.39
48.86
47.53
46.57
46.74
48.01
49.47
49.76
47.61
42.33
34.00
23.36
11.66
0.19
-10.03
-18.57
-25.75
-32.40
-39.32
-46.75
-54.17
-60.47
-64.66
-66.52
-66.75
-66.52
-66.75
-67.42
-67.56
-66.00
-62.16
-56.56
-50.59
-45.65
-42.26
-39.74
-36.45
-30.64
-21.48
-9.51
3.47
14.92
22.27
23.64
18.36
7.44
-6.38
-19.24
-27.57
-29.73
-26.96
-23.05
-22.70
-29.27
-43.28
-62.14
-81.29
-95.88
-102.30
-98.84
-85.53
-63.61
-35.19
-2.97
29.83
59.96
84.74
102.66
113.65
118.96
120.33
119.10
115.24
107.09
92.07
68.52
37.70
4.69
-22.66
-36.63
-33.17
-14.14
13.04
38.07
51.29
46.48
21.88
-20.34
-75.11
-135.48
-193.29
-240.14
-268.97
-275.83
-261.29
-230.32
-190.63
-149.96
-113.85
-84.63
-62.08
-44.69
-30.99
-19.97
-10.91
-3.04
4.53
12.38
20.36
27.52
32.58
34.88
35.22
35.82
39.32
47.29
59.08
71.87
81.89
86.22
84.12
77.20
68.66
61.79
58.70
60.06
65.55
74.77
87.50
103.34
120.83
137.08
148.04
149.61
139.52
118.31
89.41
58.06
29.50
7.69
-4.98
-7.54
-0.30
15.55
37.23
60.35
79.33
88.46
83.85
65.42
37.10
5.33
-22.86
-42.90
-53.86
-58.45
-59.74
-61.63
-66.67
-74.00
-83.08
-91.50
-98.20
-103.98
-107.83
-109.87
-109.87
-106.81
-99.49
-87.94
-73.43
-58.61
-46.10
-37.03
-31.15
-27.31
-24.90
-24.31
-26.65
-32.00
-38.64
-42.84
-39.78
-25.46
1.90
39.99
83.75
126.84
163.62
190.28
206.11
214.32
221.08
233.22
252.95
277.74
301.71
318.39
322.94
313.98
294.13
268.52
242.38
215.33
184.75
149.07
109.73
69.84
32.18
-1.85
-32.47
-61.23
-94.99
-139.91
-198.04
-266.45
-340.28
-415.95
-492.35
-570.76
-624.11
-632.24
-593.04
-521.97
-435.24
-340.45
-240.64
-140.57
-48.26
28.03
79.43
103.50
106.05
98.17
89.64
85.18
85.30
89.50
98.28
109.05
118.18
121.64
116.34
100.31
73.14
38.10
1.83
-27.99
-48.56
-61.23
-69.16
-74.03
-74.80
-68.29
-51.25
-23.22
12.11
46.45
71.28
82.04
79.81
69.58
56.94
45.28
33.34
18.69
-1.57
-27.96
-57.30
-83.57
-100.99
-107.23
-104.65
-99.08
-95.72
-95.87
-95.44
-86.99
-64.34
-26.81
19.35
63.26
94.43
107.78
105.49
95.54
87.41
87.47
96.51
110.29
122.36
127.28
122.75
109.41
89.56
65.40
37.93
7.57
-24.55
-55.47
-80.74
-96.20
-100.20
-94.73
-84.56
-75.12
-70.01
-69.63
-71.50
-71.68
-66.61
-54.56
-36.11
-14.02
7.69
25.16
36.13
40.82
41.70
42.21
44.88
50.05
55.90
59.96
60.79
59.23
58.20
61.03
69.46
82.40
96.35
106.89
110.56
105.97
93.66
75.34
52.95
28.53
4.60
-15.39
-27.44
-28.36
-17.57
1.47
21.97
36.33
39.15
29.52
11.05
-9.87
-26.51
-34.32
-32.41
-24.16
-16.24
-16.05
-28.17
-51.05
-76.24
-91.28
-85.47
-55.63
-8.77
40.38
75.90
87.18
72.23
36.22
-12.83
-67.40
-121.07
-166.36
-193.59
-192.58
-157.41
-91.51
-9.33
67.35
117.18
127.88
100.98
50.70
-2.10
-38.23
-46.50
-25.54
18.63
76.91
140.48
202.22
255.61
293.82
309.97
298.77
258.85
193.59
110.45
18.51
-73.58
-158.78
-231.49
-286.95
-321.65
-333.93
-324.53
-296.41
-253.97
-202.52
-148.53
-99.69
-64.10
-47.93
-52.80
-74.26
-102.86
-127.59
-139.75
-135.28
-114.41
-79.73
-34.84
16.00
66.74
109.04
133.41
132.19
102.93
50.21
-15.16
-79.53
-130.35
-159.35
-163.90
-145.95
-110.03
-61.02
-3.04
60.22
124.25
182.71
227.28
249.23
242.27
205.70
145.74
74.69
7.48
-42.85
-68.83
-70.01
-51.68
-21.56
13.48
49.38
84.72
119.14
151.76
180.53
203.09
218.20
226.99
232.93
240.75
254.94
278.28
310.69
348.63
385.26
411.60
418.82
400.75
356.21
289.84
210.96
130.63
58.28
-0.89
-46.13
-79.62
-104.07
-121.11
-131.32
-135.54
-136.18
-137.07
-141.61
-150.31
-159.52
-162.45
-152.73
-128.28
-93.41
-57.41
-30.25
-17.91
-19.82
-30.11
-41.63
-49.92
-54.87
-59.18
-64.72
-69.88
-69.56
-58.18
-33.63
0.39
35.42
61.99
74.12
72.05
61.53
50.63
45.63
48.53
57.12
67.11
74.79
78.66
79.64
80.03
82.48
89.57
104.26
130.09
170.39
226.19
293.79
363.75
422.29
455.18
452.56
412.33
340.50
248.38
148.44
50.54
-39.85
-121.27
-194.75
-262.09
-325.04
-384.71
-440.80
-490.60
-528.11
-544.54
-530.60
-480.37
-395.05
-284.52
-165.75
-58.01
22.78
68.37
79.38
63.38
30.93
-8.19
-47.18
-82.67
-113.76
-140.93
-165.55
-189.82
-216.84
-249.71
-289.63
-334.11
-376.34
-406.81
-416.47
-400.39
-359.88
-301.86
-235.93
-170.45
-109.81
-53.69
1.33
58.86
120.16
182.79
241.31
289.04
320.58
333.49
328.76
310.20
282.61
250.02
214.78
177.72
139.11
99.74
61.31
26.01
-4.25
-28.70
-47.87
-63.06
-75.43
-85.24
-91.41
-91.95
-85.09
-70.61
-50.57
-28.95
-10.29
2.22
8.00
9.11
9.02
10.71
15.46
22.58
30.40
37.55
43.74
49.77
56.78
65.43
75.38
85.62
95.00
102.84
109.15
114.45
119.51
125.03
131.44
138.92
147.40
156.54
165.88
174.75
182.33
187.56
189.09
185.42
175.22
157.86
133.73
104.37
71.96
38.65
5.97
-25.43
-55.39
-83.65
-109.35
-130.97
-146.83
-155.63
-156.97
-151.35
-140.00
-124.59
-106.95
-88.97
-72.32
-57.99
-45.79
-34.29
-21.27
-4.78
15.72
38.94
62.29
83.10
100.09
113.98
127.03
141.57
158.63
177.12
194.26
206.77
212.13
209.43
199.18
182.68
161.20
135.63
106.74
75.70
44.48
15.71
-8.15
-25.90
-38.34
-48.23
-59.52
-75.94
-99.83
-131.42
-168.75
-208.21
-245.68
-277.45
-300.98
-315.07
-319.45
-314.22
-299.40
-275.02
-241.82
-201.98
-159.35
-118.78
-84.65
-59.36
-42.50
-31.21
-21.61
-10.55
3.20
18.77
33.92
46.26
54.29
57.80
57.57
54.73
50.24
44.72
38.75
33.30
29.73
29.50
33.38
40.92
50.31
58.96
64.43
65.21
61.01
52.66
41.47
28.74
15.42
1.94
-11.56
-25.10
-38.64
-51.94
-64.40
-74.98
-82.20
-84.42
-80.44
-70.07
-54.58
-36.51
-19.08
-5.46
1.54
-0.45
-13.22
-37.30
-70.86
-108.76
-142.92
-164.05
-164.51
-140.85
-94.83
-32.66
36.97
104.92
163.00
204.85
226.83
228.77
214.40
190.53
164.91
143.65
129.45
121.58
117.39
114.26
110.57
105.46
97.77
85.24
65.09
35.55
-2.40
-44.38
-83.50
-112.82
-127.68
-127.21
-114.24
-93.85
-71.28
-50.41
-32.98
-18.96
-7.50
2.10
9.93
15.32
17.33
15.19
8.80
-1.10
-12.99
-24.90
-35.08
-42.64
-48.01
-53.04
-60.48
-73.37
-94.16
-123.94
-161.89
-204.87
-247.54
-283.11
-304.67
-306.99
-288.21
-250.57
-200.07
-144.81
-92.70
-49.46
-17.70
2.86
14.29
19.17
19.97
18.79
17.58
18.27
22.42
30.68
42.27
54.92
65.55
71.35
70.82
64.25
53.47
40.78
27.87
15.20
2.16
-12.01
-27.27
-42.21
-54.44
-61.58
-62.39
-57.50
-49.19
-40.53
-34.31
-32.04
-33.84
-38.82
-45.77
-53.76
-62.37
-71.39
-80.53
-89.07
-96.06
-100.57
-102.30
-101.67
-99.80
-97.94
-97.06
-97.48
-98.97
-100.90
-102.68
-103.95
-104.84
-105.91
-108.11
-112.54
-120.02
-130.78
-144.18
-158.72
-172.34
-182.88
-188.58
-188.33
-181.86
-169.69
-153.21
-134.32
-115.00
-96.55
-79.11
-61.59
-42.34
-20.15
5.06
32.33
60.41
88.78
117.97
149.15
182.96
218.72
254.35
287.49
316.76
342.65
367.35
393.55
423.05
455.62
488.73
517.89
537.68
542.90
529.78
497.18
447.37
386.01
320.95
260.16
209.43
170.94
143.23
122.52
104.70
86.70
67.25
46.37
24.56
1.96
-21.62
-46.29
-71.91
-98.45
-126.83
-158.87
-196.31
-239.08
-284.04
-325.00
-354.40
-366.15
-358.02
-332.86
-296.77
-256.50
-217.10
-181.08
-148.90
-120.14
-94.65
-72.92
-57.09
-48.83
-48.38
-54.63
-65.57
-78.50
-89.90
-95.72
-92.15
-79.18
-58.19
-31.20
-0.50
31.13
60.72
85.76
104.41
115.24
112.98
93.84
57.58
7.79
-49.76
-108.60
-162.51
-206.74
-239.35
-266.71
-295.32
-327.33
-359.04
-383.56
-394.43
-388.33
-366.72
-305.42
-201.37
-73.08
50.70
150.53
222.12
268.77
294.29
301.89
296.64
281.62
262.77
247.79
242.83
248.52
259.67
268.97
268.68
256.02
231.02
198.37
164.72
135.53
113.16
97.49
87.97
84.83
88.77
97.78
109.16
121.97
135.59
148.91
159.63
164.85
162.10
150.06
128.01
97.12
60.37
21.60
-15.88
-50.01
-80.17
-103.09
-117.04
-122.01
-119.51
-112.26
-103.81
-97.63
-95.98
-98.79
-103.27
-105.25
-100.68
-87.85
-68.39
-46.88
-28.45
-16.29
-10.31
-7.45
-4.30
1.09
7.96
13.35
13.92
8.09
-2.93
-15.69
-26.14
-31.64
-31.78
-28.23
-23.75
-20.80
-20.74
-23.61
-28.88
-36.25
-46.19
-59.54
-76.81
-97.75
-121.37
-146.48
-171.87
-196.17
-217.25
-231.88
-236.05
-226.12
-200.34
-159.69
-108.01
-51.14
4.42
52.84
90.18
115.15
129.28
136.15
139.80
142.76
145.12
145.01
140.57
131.98
122.15
115.66
116.28
124.83
138.70
153.32
164.69
171.30
174.64
177.96
184.39
195.34
209.83
224.96
237.01
242.82
240.78
231.35
216.63
199.36
181.54
163.68
145.05
124.80
103.12
81.74
63.24
49.64
41.13
35.88
31.03
24.01
13.76
0.74
-13.79
-28.65
-43.36
-57.99
-72.64
-87.08
-100.75
-113.13
-124.27
-134.83
-145.82
-157.87
-170.66
-183.00
-193.49
-201.69
-208.70
-216.85
-228.51
-244.81
-264.89
-286.34
-306.16
-321.66
-330.59
-330.73
-319.43
-294.01
-253.16
-198.37
-134.52
-68.71
-8.02
42.75
82.11
111.34
133.02
149.54
162.61
173.21
182.16
190.05
196.98
202.21
204.17
201.07
191.80
176.75
157.90
138.24
120.70
107.07
97.44
90.26
83.12
73.71
60.71
44.06
24.63
3.57
-18.23
-40.35
-62.60
-84.60
-105.79
-125.48
-143.09
-158.24
-170.51
-179.26
-183.59
-182.67
-176.22
-164.86
-150.04
-133.69
-117.62
-103.14
-90.93
-80.94
-72.57
-64.78
-56.33
-46.19
-33.85
-19.68
-4.72
9.59
22.11
32.38
40.80
48.34
56.11
64.90
74.99
86.12
97.69
109.04
119.57
128.74
136.09
141.19
143.76
143.72
141.33
137.19
132.04
126.45
120.62
114.25
106.79
97.75
87.09
75.27
63.08
51.41
40.98
32.14
25.00
19.49
15.42
12.44
10.04
7.60
4.61
0.76
-3.88
-9.01
-14.22
-19.16
-23.53
-27.04
-29.45
-30.51
-30.10
-28.21
-24.99
-20.64
-15.44
-9.69
-3.79
1.81
6.71
10.60
13.43
15.33
16.59
17.54
18.43
19.46
20.70
22.11
23.47
24.39
24.38
23.01
20.13
15.96
11.03
5.96
1.23
-2.99
-6.83
-10.60
-14.58
-18.89
-23.39
-27.74
-31.45
-33.93
-34.64
-33.25
-29.77
-24.61
-18.54
-12.37
-6.79
-2.11
1.65
4.57
6.60
7.61
7.47
6.22
4.21
1.93
-0.24
-2.14
-3.98
-6.05
-8.57
-11.51
-14.60
-17.46
-19.78
-21.41
-22.43
-23.02
-23.41
-23.81
-24.39
-25.20
-26.21
-27.19
-27.80
-27.54
-25.85
-22.31
-16.75
-9.32
-0.47
9.21
19.17
29.02
38.49
47.33
55.26
61.95
67.20
71.11
74.12
76.90
80.15
84.41
89.80
95.88
101.61
105.42
105.67
101.31
92.47
80.72
68.68
58.99
53.27
51.52
52.32
53.71
54.24
53.51
52.06
50.69
49.80
49.12
47.84
45.22
40.86
34.93
27.93
20.35
12.40
3.94
-5.42
-15.99
-27.72
-40.09
-52.11
-62.62
-70.72
-76.06
-78.73
-79.15
-77.74
-74.85
-70.80
-66.11
-61.61
-58.34
-57.34
-59.43
-65.04
-74.23
-86.80
-102.38
-120.55
-140.84
-162.90
-186.53
-211.48
-237.25
-262.82
-286.54
-306.41
-320.36
-326.65
-324.11
-312.05
-290.37
-259.45
-220.42
-175.04
-125.71
-75.01
-25.34
21.55
64.48
102.80
136.02
163.70
185.75
202.92
217.19
231.52
248.83
270.32
294.32
316.21
329.67
329.03
311.13
276.40
228.64
173.74
118.20
67.85
26.87
-2.83
-21.92
-33.54
-42.53
-53.81
-70.56
-92.78
-116.95
-137.01
-146.39
-140.10
-116.72
-78.90
-32.64
14.63
56.28
88.11
108.87
119.47
121.72
117.22
107.20
92.95
76.56
61.13
50.14
46.09
49.41
58.04
68.23
76.22
79.73
78.72
74.73
69.63
64.43
59.10
53.43
47.99
44.49
45.10
51.09
62.00
75.73
89.49
100.93
108.44
111.12
108.36
99.93
86.52
70.21
54.41
42.90
38.28
40.71
47.32
53.06
52.41
41.70
20.73
-6.69
-34.06
-54.82
-65.17
-65.86
-61.96
-60.59
-67.81
-86.16
-114.34
-148.39
-183.72
-216.45
-243.22
-260.38
-263.56
-248.61
-213.99
-163.16
-105.36
-53.61
-20.59
-13.77
-32.56
-68.83
-110.65
-146.96
-170.94
-180.68
-177.60
-164.46
-144.32
-120.69
-97.92
-80.50
-71.38
-69.97
-71.66
-69.46
-57.27
-32.98
0.38
36.36
68.43
93.11
111.19
126.32
142.15
159.85
177.44
191.19
198.27
198.83
195.83
193.07
192.41
192.28
188.37
176.23
154.19
124.68
93.05
64.96
43.47
27.81
14.23
-1.68
-22.48
-47.65
-73.93
-96.89
-112.94
-120.56
-120.77
-116.24
-109.90
-103.50
-97.08
-89.45
-79.53
-67.70
-56.23
-48.49
-47.29
-53.14
-63.65
-74.26
-80.15
-78.31
-68.66
-53.83
-37.77
-23.97
-14.28
-8.65
-5.81
-4.30
-3.18
-2.35
-2.18
-2.98
-4.61
-6.30
-6.98
-5.86
-2.84
1.27
5.21
7.76
8.30
6.99
4.52
1.70
-0.93
-3.09
-4.61
-5.14
-4.09
-0.81
5.02
13.12
22.53
31.91
39.93
45.87
49.84
52.78
56.05
60.75
67.26
75.03
82.92
89.86
95.52
100.50
106.00
113.13
122.09
131.83
140.23
144.94
144.11
136.88
123.40
104.50
81.48
55.97
30.01
5.85
-14.38
-29.36
-39.06
-44.81
-48.61
-52.18
-56.08
-59.47
-60.79
-58.66
-52.76
-43.89
-33.33
-22.10
-10.39
2.20
16.13
31.36
47.16
62.32
75.60
86.02
92.91
95.81
94.35
88.23
77.22
61.40
41.22
17.51
-8.60
-35.84
-63.20
-90.23
-117.26
-145.21
-175.01
-206.76
-239.21
-269.74
-295.09
-312.53
-320.89
-321.15
-316.16
-309.64
-304.67
-302.37
-301.50
-299.01
-291.38
-275.98
-251.73
-219.18
-179.85
-135.85
-89.10
-41.22
6.68
54.02
100.52
146.00
189.98
231.45
269.04
301.49
327.98
348.22
361.98
368.54
366.63
355.04
333.84
305.15
273.17
243.17
219.86
205.74
200.31
200.58
202.47
202.52
199.25
193.28
186.45
180.55
176.18
172.38
167.25
158.72
145.35
126.41
101.76
71.80
37.69
1.73
-32.56
-61.07
-80.45
-89.34
-89.01
-82.66
-73.96
-65.43
-57.77
-50.32
-42.28
-33.88
-26.69
-23.03
-24.82
-32.59
-45.24
-60.47
-75.76
-89.01
-99.11
-105.97
-110.32
-113.52
-117.30
-123.48
-133.48
-147.71
-165.06
-182.93
-197.99
-207.30
-209.61
-205.75
-198.17
-189.72
-182.27
-176.11
-170.21
-163.17
-154.08
-143.03
-131.15
-120.32
-112.77
-110.74
-115.91
-128.79
-148.06
-170.53
-191.84
-207.54
-214.44
-211.43
-199.57
-181.42
-159.91
-137.36
-114.88
-92.41
-69.43
-45.99
-23.47
-4.61
7.30
9.86
2.87
-11.22
-27.94
-42.21
-50.13
-50.02
-42.48
-29.47
-13.21
4.95
24.60
45.91
68.89
93.01
117.25
140.68
163.05
184.96
207.32
230.45
253.32
273.65
288.83
297.35
299.77
298.51
296.59
295.97
296.52
296.18
292.08
281.82
264.10
238.50
204.91
163.32
114.33
59.91
3.71
-49.64
-95.86
-132.30
-158.47
-175.43
-184.82
-187.84
-185.19
-177.35
-165.20
-150.28
-134.64
-120.32
-108.89
-101.02
-96.38
-93.91
-92.45
-91.46
-91.81
-95.61
-105.39
-122.81
-147.58
-177.22
-207.96
-236.03
-258.84
-275.32
-285.49
-289.51
-287.13
-277.71
-260.77
-236.61
-206.55
-172.56
-136.48
-99.46
-61.82
-23.64
14.44
50.77
82.93
108.57
126.54
137.48
143.64
148.07
153.53
161.83
173.62
188.72
206.46
225.70
244.48
259.73
267.40
263.65
246.36
216.54
178.58
139.08
104.64
79.48
64.29
56.49
51.94
47.07
40.21
31.73
23.24
16.40
12.22
10.95
12.36
16.01
21.34
27.51
33.38
37.59
38.78
35.91
28.49
16.79
1.95
-14.07
-28.90
-40.29
-46.78
-48.05
-44.92
-38.91
-31.64
-24.34
-17.65
-11.85
-6.99
-3.19
-0.59
0.73
0.89
0.27
-0.51
-0.81
-0.19
1.32
3.17
4.47
4.27
2.13
-1.78
-6.69
-11.60
-15.76
-18.87
-21.24
-23.45
-26.20
-30.01
-35.05
-41.13
-47.45
-52.79
-55.64
-54.73
-49.51
-40.44
-28.83
-16.51
-5.09
4.34
11.42
16.24
19.13
20.39
20.30
19.20
17.57
16.01
15.12
15.20
16.20
17.63
18.78
19.02
18.04
15.93
13.16
10.25
7.53
5.07
2.65
0.02
-3.10
-6.84
-11.31
-16.61
-22.77
-29.49
-35.97
-40.97
-43.11
-41.39
-35.63
-26.61
-15.78
-4.76
5.22
13.47
19.83
24.37
27.09
27.97
27.06
24.75
21.73
18.93
17.14
16.70
17.46
18.80
19.94
20.22
19.33
17.35
14.59
11.43
8.18
4.94
1.69
-1.66
-5.22
-9.08
-13.39
-18.32
-23.93
-30.00
-35.73
-39.94
-41.22
-38.66
-32.17
-22.67
-11.76
-1.14
7.94
14.99
20.08
23.54
25.59
26.35
25.92
24.53
22.69
20.97
19.88
19.62
20.06
20.78
21.30
21.15
19.99
17.75
14.60
10.86
6.91
3.05
-0.62
-4.20
-7.88
-11.89
-16.47
-21.79
-27.88
-34.65
-41.62
-47.96
-52.50
-53.96
-51.35
-44.31
-33.38
-19.87
-5.61
7.62
18.47
26.35
31.41
34.35
36.01
37.14
38.13
39.12
40.01
40.65
40.97
40.99
40.76
40.34
39.61
38.35
36.27
33.12
28.89
23.76
18.07
12.14
6.17
0.15
-5.98
-12.33
-18.96
-25.97
-33.52
-41.73
-50.53
-59.29
-66.82
-71.57
-72.10
-67.68
-58.73
-46.57
-33.12
-20.17
-8.89
0.26
7.33
12.55
16.09
17.97
18.26
17.22
15.43
13.57
12.18
11.35
10.66
9.33
6.59
2.10
-3.88
-10.59
-17.06
-22.56
-26.79
-29.95
-32.53
-35.06
-37.86
-40.98
-44.31
-47.65
-51.01
-54.64
-59.09
-65.16
-73.53
-84.55
-97.81
-112.11
-125.63
-136.34
-142.66
-143.87
-140.05
-131.84
-119.82
-104.10
-84.29
-59.75
-30.01
5.04
44.91
88.36
133.18
176.00
212.66
239.10
252.61
252.93
242.38
225.06
205.32
186.37
169.68
155.28
142.66
131.45
121.67
113.41
106.44
100.09
93.50
86.07
77.81
69.25
61.26
54.55
49.36
45.41
42.04
38.54
34.46
29.79
24.91
20.40
16.71
14.04
12.22
10.84
9.45
7.77
5.75
3.59
1.58
-0.02
-1.09
-1.71
-2.06
-2.36
-2.76
-3.30
-3.90
-4.43
-4.81
-4.98
-4.96
-4.82
-4.65
-4.50
-4.41
-4.36
-4.34
-4.33
-4.32
-4.30
-4.28
-4.26
-4.25
-4.23
-4.22
-4.20
-4.19
-4.17
-4.16
-4.14
-4.13
-4.11
-4.10
-4.08
-4.07
-4.05
-4.04
-4.03
-4.01
-4.00
-3.98
-3.97
-3.95
-3.94
-3.92
-3.91
-3.90
-3.88
-3.87
-3.85
-3.84
-3.82
-3.81
-3.80
-3.78
-3.77
-3.76
-3.74
-3.73
-3.71
-3.70
-3.69
-3.67
-3.66
-3.65
-3.63
-3.62
-3.61
-3.59
-3.58
-3.57
-3.55
-3.54
-3.53
-3.52
-3.50
-3.49
-3.48
-3.46
-3.45
-3.44
-3.43
-3.41
-3.40
-3.39
-3.38
-3.36
-3.35
-3.34
-3.33
-3.31
-3.30
-3.29
-3.28
-3.26
-3.25
-3.24
-3.23
-3.22
-3.20
-3.19
-3.18
-3.17
-3.16
-3.15
-3.13
-3.12
-3.11
-3.10
-3.09
-3.07
-3.06
-3.05
-3.04
-3.03
-3.02
-3.01
-3.00
-2.98
-2.97
-2.96
-2.95
-2.94
-2.93
-2.92
-2.91
-2.90
-2.89
-2.87
-2.86
-2.85
-2.84
-2.83
-2.82
-2.81
-2.80
-2.79
-2.78
-2.77
-2.76
-2.75
-2.74
-2.73
-2.72
-2.71
-2.70
-2.69
-2.68
-2.67
-2.65
-2.63
-2.61
-2.58
-2.54
-2.49
-2.43
-2.36
-2.30
-2.25
-2.23
-2.22
-2.22
-2.21
-2.19
-2.17
-2.15
-2.17
-2.23
-2.33
-2.42
-2.48
-2.46
-2.37
-2.21
-2.04
-1.88
-1.79
-1.74
-1.69
-1.59
-1.36
-0.98
-0.50
0.00
0.41
0.66
0.77
0.82
0.98
1.38
2.05
2.89
3.67
4.14
4.18
3.87
3.46
3.31
3.72
4.73
6.12
7.44
8.25
8.33
7.83
7.23
7.16
8.05
9.85
12.04
13.74
14.15
12.93
10.25
6.52
2.05
-3.13
-9.00
-15.12
-20.46
-23.67
-23.78
-20.73
-15.25
-8.14
0.60
12.03
27.60
47.96
71.93
96.54
118.10
133.69
142.17
144.13
141.02
134.14
124.10
110.96
94.78
75.98
55.37
33.92
12.42
-8.82
-30.04
-52.02
-75.72
-101.68
-129.33
-156.59
-180.02
-195.82
-201.06
-195.04
-179.61
-158.61
-136.34
-115.86
-98.13
-82.11
-66.04
-48.78
-30.62
-13.01
2.62
15.87
27.59
39.18
51.16
62.33
70.08
71.79
66.49
55.59
42.37
30.27
21.27
15.19
10.31
4.86
-1.76
-8.49
-13.30
-14.33
-10.91
-3.94
4.60
12.57
18.46
21.70
22.50
21.36
18.65
14.70
10.04
5.66
2.80
2.48
4.86
9.17
14.15
18.73
22.57
25.91
28.99
31.37
31.85
29.05
22.42
12.83
2.46
-6.10
-11.02
-11.95
-9.92
-6.64
-3.58
-1.42
-0.20
0.21
-0.36
-2.39
-6.24
-11.65
-17.66
-23.13
-27.50
-31.06
-34.63
-38.83
-43.40
-47.34
-49.54
-49.56
-47.91
-45.44
-42.56
-38.74
-32.86
-24.33
-13.98
-4.09
2.49
3.70
-0.78
-9.44
-19.87
-29.83
-38.12
-44.78
-50.72
-57.06
-64.47
-72.88
-81.47
-89.08
-94.67
-97.88
-99.19
-99.87
-101.44
-104.93
-110.33
-116.30
-120.58
-120.74
-115.20
-103.69
-87.08
-66.84
-44.37
-20.85
2.43
23.74
40.96
52.42
57.85
58.95
58.83
60.77
66.69
76.48
88.59
101.14
112.81
123.04
131.33
136.70
137.93
134.75
128.97
124.82
127.68
141.95
169.01
206.36
248.31
287.69
317.80
333.74
333.20
316.53
286.45
247.33
204.09
161.03
121.08
85.64
55.06
29.17
7.50
-10.78
-27.27
-44.17
-63.67
-86.89
-113.19
-140.10
-164.17
-182.11
-191.96
-193.55
-188.40
-179.09
-168.48
-158.68
-150.34
-142.47
-133.06
-120.44
-104.60
-87.66
-73.04
-63.59
-59.84
-59.37
-58.11
-52.70
-42.64
-30.78
-21.85
-20.01
-26.84
-40.96
-59.46
-79.81
-101.11
-123.88
-148.79
-175.52
-202.41
-227.21
-248.02
-263.99
-274.92
-280.39
-279.10
-269.14
-249.09
-219.39
-182.88
-144.17
-107.94
-77.29
-52.77
-32.92
-15.64
0.45
15.46
28.75
39.94
49.58
58.84
68.59
78.36
86.29
90.03
88.13
81.10
71.17
61.26
53.48
48.22
44.23
39.46
32.20
21.80
8.90
-4.95
-17.87
-28.16
-34.72
-37.19
-35.99
-32.09
-26.69
-20.79
-14.86
-8.78
-2.02
6.02
15.67
26.77
38.73
50.63
61.53
70.66
77.61
82.37
85.23
86.68
87.32
87.71
88.31
89.50
91.45
94.07
96.99
99.60
101.32
101.82
101.23
100.10
99.11
98.68
98.63
98.31
96.78
93.34
87.83
80.76
72.99
65.42
58.48
52.05
45.41
37.61
27.93
16.23
3.22
-9.60
-20.36
-27.34
-29.60
-27.24
-21.39
-13.62
-5.42
2.19
8.80
14.33
18.76
22.00
24.01
24.96
25.30
25.69
26.62
28.22
30.14
31.85
32.85
32.96
32.28
31.09
29.66
28.25
27.01
26.11
25.62
25.43
25.20
24.47
22.79
19.86
15.63
10.24
3.93
-2.94
-9.89
-16.26
-21.30
-24.34
-24.89
-22.71
-17.68
-9.75
1.04
14.26
28.90
43.43
56.09
65.53
71.29
73.96
74.92
75.70
77.40
80.37
84.17
88.01
91.04
92.74
93.01
92.10
90.49
88.69
87.11
86.05
85.64
85.93
86.85
88.09
89.08
88.89
86.56
81.47
73.83
64.81
56.21
49.81
46.53
45.99
46.64
46.38
43.50
37.37
28.86
20.05
13.61
11.90
16.16
25.90
38.92
51.70
60.53
62.59
56.70
43.45
24.63
2.41
-21.38
-45.49
-69.06
-91.30
-111.25
-127.96
-140.84
-149.98
-156.09
-160.20
-162.94
-164.33
-163.84
-160.97
-155.75
-148.89
-141.41
-133.91
-126.22
-117.40
-106.48
-93.10
-77.81
-61.90
-46.80
-33.61
-22.99
-15.35
-11.14
-10.89
-14.88
-22.65
-32.84
-43.36
-52.06
-57.43
-59.04
-57.53
-54.09
-49.94
-45.73
-41.47
-36.74
-31.04
-24.26
-16.74
-9.17
-2.20
3.73
8.50
12.14
14.69
16.12
16.40
15.75
14.70
14.01
14.40
16.24
19.54
23.97
29.06
34.12
38.10
39.50
36.77
29.03
17.00
3.30
-8.14
-13.52
-10.81
-0.58
14.19
29.54
42.11
50.19
53.72
53.50
50.29
44.35
35.68
24.48
11.68
-1.24
-12.62
-21.31
-27.01
-30.26
-32.09
-33.56
-35.48
-38.21
-41.69
-45.54
-49.29
-52.58
-55.53
-58.92
-64.02
-72.05
-83.49
-97.46
-111.83
-123.79
-131.01
-132.49
-128.90
-122.13
-114.44
-107.44
-101.57
-96.01
-89.34
-80.21
-68.23
-54.30
-40.45
-29.15
-22.47
-21.26
-24.90
-31.73
-39.58
-46.46
-50.80
-51.49
-48.12
-41.78
-35.81
-35.63
-47.09
-73.22
-111.35
-152.20
-182.74
-191.54
-174.45
-137.42
-94.35
-60.99
-48.11
-57.44
-82.32
-112.15
-137.44
-152.60
-155.49
-145.23
-120.81
-82.10
-32.66
18.20
56.73
69.47
49.69
1.80
-59.48
-114.73
-147.47
-150.12
-125.05
-80.90
-26.82
31.61
92.60
155.26
216.36
269.54
307.53
325.61
323.71
305.60
275.80
236.72
188.18
129.51
62.67
-6.19
-68.02
-114.36
-140.68
-147.74
-140.35
-124.65
-105.69
-86.32
-67.80
-50.24
-33.30
-16.37
1.94
23.86
52.42
90.33
138.34
193.65
249.36
295.71
323.21
326.34
305.96
269.06
225.59
184.55
150.78
124.48
102.79
82.39
61.58
40.66
21.16
4.58
-8.51
-18.72
-27.55
-36.92
-48.69
-63.62
-80.79
-97.20
-108.24
-109.10
-96.43
-69.67
-31.27
14.16
61.18
104.75
140.92
166.98
181.42
183.94
175.61
158.81
136.77
112.72
88.95
66.53
45.62
26.41
9.66
-3.42
-11.88
-15.69
-15.65
-12.67
-6.84
2.75
17.37
37.29
60.86
84.58
104.15
116.23
119.70
115.98
108.22
99.75
92.72
87.27
81.70
73.23
59.21
37.98
9.67
-23.77
-58.98
-92.12
-120.08
-141.54
-157.75
-172.08
-188.55
-209.47
-233.31
-254.26
-263.92
-254.87
-224.37
-176.14
-119.36
-65.25
-22.84
3.75
15.42
16.15
10.32
0.95
-10.20
-21.24
-28.69
-27.54
-13.09
16.32
57.66
103.42
144.39
173.02
186.21
185.83
176.93
165.01
153.57
143.29
133.03
121.58
108.91
96.23
84.93
75.41
66.71
57.28
46.10
33.61
21.68
12.85
9.05
10.56
15.90
22.43
27.36
28.50
24.38
13.81
-4.46
-31.60
-67.49
-109.34
-150.97
-183.62
-198.28
-188.75
-154.37
-100.75
-38.38
20.77
66.86
95.00
105.71
103.53
94.27
82.42
70.03
57.19
43.71
30.84
21.86
21.10
31.85
53.99
83.54
113.97
138.82
154.20
159.66
157.15
148.77
135.10
114.96
86.75
50.26
7.68
-36.93
-79.16
-115.83
-145.61
-168.57
-184.55
-192.27
-189.48
-174.68
-148.51
-114.22
-76.85
-41.67
-12.77
7.94
20.41
25.33
22.59
11.22
-9.75
-39.58
-74.64
-109.15
-136.23
-150.08
-147.53
-129.59
-100.13
-63.75
-23.79
18.16
60.21
100.48
136.30
165.23
183.03
186.16
173.39
146.88
110.86
67.15
17.11
-37.60
-91.83
-142.08
-184.90
-217.78
-239.72
-252.61
-264.38
-281.05
-303.04
-321.93
-332.88
-335.51
-334.65
-336.40
-345.24
-366.43
-398.67
-434.74
-461.04
-473.59
-475.18
-472.04
-467.99
-431.37
-346.66
-220.73
-108.02
-21.11
39.26
83.67
115.80
139.84
160.42
176.33
186.24
190.14
194.00
197.77
199.63
197.90
194.38
193.03
194.54
200.17
211.88
234.51
265.45
297.64
322.18
333.20
328.97
309.44
278.09
240.42
203.75
170.07
138.44
107.44
78.55
56.38
46.08
52.35
77.21
119.10
169.95
218.24
252.41
264.55
251.61
214.57
157.87
88.74
17.06
-46.64
-92.99
-116.69
-118.50
-105.32
-87.26
-72.95
-65.71
-62.77
-57.94
-45.76
-24.46
3.84
35.26
66.24
94.28
117.41
133.16
138.68
132.23
114.48
88.73
59.43
30.00
1.76
-25.82
-53.78
-82.35
-110.43
-136.00
-156.54
-169.14
-170.98
-160.17
-137.34
-106.73
-75.95
-53.66
-46.42
-56.04
-78.92
-108.21
-137.13
-161.78
-181.73
-198.64
-213.95
-227.55
-237.72
-242.00
-238.79
-228.02
-210.89
-189.03
-164.22
-138.32
-113.86
-94.10
-81.59
-77.33
-79.89
-85.34
-88.05
-82.68
-65.52
-36.05
3.19
49.22
98.73
148.42
195.38
237.77
274.89
308.21
339.32
368.59
396.21
419.74
434.01
432.94
412.77
373.81
322.36
266.85
214.80
173.64
147.23
135.35
134.88
142.12
153.32
167.00
181.23
177.21
142.80
78.82
-0.73
-79.32
-141.24
-191.27
-234.57
-273.15
-305.82
-326.02
-326.59
-304.67
-263.71
-211.64
-158.07
-108.16
-63.11
-21.07
22.80
71.15
121.63
167.23
199.76
213.16
207.66
187.73
159.65
130.35
104.26
82.14
62.32
42.89
23.05
4.54
-10.50
-20.94
-26.71
-29.22
-30.91
-34.23
-40.61
-49.99
-60.52
-69.85
-76.15
-78.45
-77.03
-73.00
-67.60
-61.37
-54.05
-44.76
-33.04
-19.36
-5.21
7.53
17.18
22.76
24.01
21.19
14.91
6.25
-3.12
-10.97
-15.15
-14.46
-9.35
-1.89
5.12
9.44
10.33
8.75
6.64
5.91
7.51
11.28
16.42
22.20
28.31
34.87
41.95
49.19
55.70
60.33
62.17
61.10
57.89
54.03
51.20
50.56
52.33
55.69
59.03
60.54
58.78
53.08
43.66
31.45
17.78
3.91
-9.44
-22.21
-34.93
-48.52
-63.90
-81.81
-102.47
-125.47
-149.65
-173.12
-193.60
-208.95
-217.84
-220.17
-217.02
-209.93
-200.21
-188.45
-174.70
-159.25
-143.37
-129.40
-119.94
-116.41
-117.98
-121.31
-121.74
-115.19
-99.98
-77.50
-51.55
-26.55
-5.69
10.12
21.90
31.44
39.99
47.48
52.76
54.57
52.49
47.48
41.42
36.07
31.99
27.93
21.17
8.62
-11.85
-40.37
-74.68
-110.58
-142.99
-167.07
-179.35
-178.53
-165.73
-143.96
-117.02
-87.91
-57.71
-25.27
11.90
56.02
107.75
165.60
226.18
284.98
337.24
378.49
404.87
413.55
403.06
373.55
326.76
265.50
193.08
112.97
29.31
-52.33
-124.93
-180.96
-214.32
-222.59
-207.95
-176.30
-134.93
-89.97
-44.67
0.39
45.69
90.57
132.16
165.68
186.28
190.99
179.83
155.54
122.41
84.82
46.45
10.23
-21.40
-46.32
-62.91
-70.52
-69.76
-62.33
-50.38
-35.93
-20.53
-5.41
8.15
18.60
24.57
25.32
21.23
13.71
4.43
-5.49
-16.12
-28.67
-44.98
-66.85
-95.44
-130.70
-170.86
-212.10
-248.67
-273.88
-281.77
-268.97
-235.83
-186.29
-126.15
-60.73
7.04
76.75
148.95
222.63
293.63
355.00
399.41
422.16
423.09
406.39
378.30
344.25
307.03
267.03
223.87
178.12
131.72
86.98
44.99
4.97
-34.74
-74.66
-112.29
-142.18
-157.89
-155.06
-134.02
-100.43
-63.48
-32.78
-15.27
-13.58
-26.12
-48.37
-74.58
-99.02
-117.08
-125.83
-124.66
-115.63
-103.00
-91.95
-86.65
-88.77
-97.11
-108.64
-120.05
-129.06
-134.74
-137.03
-136.10
-132.21
-126.27
-120.36
-117.52
-120.77
-131.64
-148.94
-168.63
-184.86
-191.43
-183.34
-157.87
-115.49
-60.03
1.81
61.87
112.68
149.33
170.14
175.82
168.02
148.38
119.16
84.50
51.31
27.86
20.49
30.30
52.15
77.39
98.60
113.37
124.48
136.49
151.15
165.25
172.04
165.44
143.88
111.46
75.71
43.95
20.38
5.56
-2.31
-5.62
-6.18
-5.36
-4.48
-5.02
-8.19
-14.52
-23.64
-34.55
-46.14
-57.47
-67.87
-76.87
-84.33
-90.55
-96.41
-103.01
-110.69
-118.00
-121.43
-116.47
-99.92
-72.32
-38.94
-8.33
11.24
15.64
6.88
-8.13
-21.35
-27.42
-25.70
-19.17
-11.75
-5.96
-2.58
-2.07
-6.12
-17.75
-39.54
-71.09
-107.59
-140.79
-161.99
-165.80
-151.85
-123.83
-86.37
-42.13
8.74
66.66
129.33
189.84
237.46
261.37
255.01
218.93
160.68
91.66
23.03
-37.59
-87.25
-127.13
-160.84
-192.68
-226.11
-262.36
-299.60
-332.87
-355.48
-361.04
-345.49
-308.14
-252.00
-183.14
-109.66
-40.37
16.98
57.60
81.14
91.69
95.94
100.53
109.65
124.39
143.97
167.54
195.13
227.12
262.43
297.26
325.20
338.90
332.49
303.33
253.02
187.31
115.23
47.87
-3.87
-31.23
-29.97
-1.85
45.49
100.48
150.92
187.59
206.51
208.92
199.48
183.07
162.29
136.47
103.03
60.30
10.21
-40.81
-83.29
-108.31
-111.36
-94.08
-63.51
-29.15
0.83
22.12
35.07
42.90
49.05
54.62
57.62
54.62
43.10
23.62
0.10
-22.06
-39.06
-50.74
-60.79
-74.11
-93.37
-116.78
-138.34
-151.05
-150.71
-138.60
-120.98
-105.99
-99.68
-103.43
-114.05
-125.88
-133.83
-135.19
-129.50
-117.21
-98.19
-71.43
-36.09
6.85
53.53
97.59
132.09
152.31
157.48
150.91
138.20
124.69
113.38
104.47
96.21
86.47
74.00
59.04
43.22
28.95
18.80
14.77
17.72
27.03
40.49
54.96
66.97
73.64
73.01
64.10
46.65
20.97
-11.90
-50.07
-90.99
-131.91
-170.63
-206.34
-239.79
-272.87
-307.31
-343.21
-377.94
-406.30
-421.96
-419.71
-397.57
-357.34
-303.48
-240.87
-172.95
-101.80
-29.86
37.69
92.37
124.26
126.39
99.18
51.89
-0.12
-41.61
-63.64
-66.76
-59.60
-53.80
-58.11
-74.67
-98.92
-122.59
-137.65
-139.03
-125.63
-99.70
-65.58
-28.43
6.89
37.22
61.96
83.09
103.91
127.11
153.56
182.24
211.15
238.20
261.20
277.37
283.10
274.48
249.50
210.03
162.10
113.97
72.69
41.23
17.91
-1.94
-22.88
-47.29
-74.52
-101.87
-126.16
-144.81
-156.45
-160.88
-158.62
-150.74
-138.70
-124.09
-108.38
-92.69
-77.77
-64.12
-52.12
-42.29
-35.19
-31.04
-29.27
-28.38
-26.22
-21.03
-12.42
-1.74
8.41
15.16
16.26
10.64
-1.69
-19.78
-41.41
-62.83
-78.78
-83.14
-70.54
-38.17
12.77
76.89
146.03
211.16
263.98
297.71
307.67
291.92
252.38
195.52
132.13
74.83
33.97
13.83
10.93
15.90
18.37
12.18
-1.65
-15.58
-19.22
-4.32
31.66
84.26
143.30
195.90
230.63
240.94
226.93
194.71
153.50
112.58
78.72
55.65
44.65
45.37
55.57
70.32
82.19
83.44
69.75
42.99
11.26
-14.57
-25.77
-19.15
2.44
32.52
64.23
92.27
113.02
124.07
123.94
112.75
92.99
69.24
46.42
27.46
11.99
-2.89
-20.37
-41.57
-64.87
-86.74
-103.66
-113.55
-116.15
-112.40
-103.68
-91.21
-76.07
-59.24
-41.63
-23.96
-6.86
8.71
21.33
29.22
31.18
27.51
20.39
13.04
8.15
6.60
7.26
8.05
7.49
5.63
3.82
3.79
6.50
11.82
18.89
26.69
34.17
40.08
42.84
40.93
33.68
21.79
7.21
-8.14
-24.03
-42.78
-68.40
-104.14
-149.72
-199.78
-244.70
-273.59
-278.05
-255.15
-208.36
-146.23
-79.62
-18.48
30.73
65.97
89.15
104.30
115.59
125.73
135.26
142.96
146.74
144.77
136.11
120.94
100.37
76.84
54.35
38.36
34.62
47.12
75.86
116.08
159.46
197.31
223.94
238.43
244.04
245.46
245.81
245.00
240.17
227.64
205.04
172.49
132.61
89.49
47.75
11.49
-16.31
-34.35
-43.38
-46.03
-46.32
-48.58
-56.49
-72.08
-95.51
-125.12
-157.77
-189.52
-216.46
-235.77
-246.47
-249.69
-248.12
-244.89
-242.35
-241.23
-240.53
-238.30
-232.96
-224.51
-215.08
-208.59
-209.34
-220.38
-242.26
-272.90
-308.68
-346.18
-383.77
-421.87
-461.49
-501.94
-539.08
-565.49
-572.91
-555.79
-514.18
-454.01
-384.89
-316.44
-255.02
-202.66
-158.20
-119.64
-86.06
-57.92
-36.09
-20.29
-8.34
3.33
18.18
38.15
62.93
90.14
116.55
139.51
157.88
172.22
184.28
196.00
208.53
221.74
234.58
245.47
253.08
256.80
256.94
254.80
252.82
254.72
264.81
286.43
319.82
360.55
399.78
426.78
432.73
413.84
372.37
315.04
250.22
185.42
126.34
77.00
40.02
16.12
2.91
-5.47
-16.80
-37.54
-69.40
-107.91
-144.15
-168.92
-176.62
-167.42
-146.25
-119.71
-93.01
-68.39
-45.70
-24.06
-3.56
14.28
27.18
33.45
32.96
27.37
19.49
12.27
7.95
7.64
11.60
19.60
31.48
47.14
66.29
87.86
109.67
128.66
141.73
146.82
143.65
133.79
119.93
104.82
90.42
77.61
66.48
56.82
48.68
42.39
38.39
36.66
36.40
35.97
33.37
26.96
16.08
1.43
-15.23
-31.75
-46.51
-58.93
-69.45
-78.87
-87.60
-95.04
-99.77
-100.20
-95.57
-86.49
-75.06
-64.25
-57.05
-55.76
-61.56
-74.36
-92.66
-113.53
-132.82
-146.05
-149.64
-142.32
-125.83
-104.46
-83.63
-68.06
-60.33
-60.49
-66.58
-75.71
-85.10
-92.87
-98.40
-102.60
-107.75
-116.88
-132.54
-155.36
-183.21
-211.50
-234.65
-248.12
-250.12
-242.09
-227.83
-211.57
-196.06
-181.56
-166.27
-147.80
-124.70
-97.29
-67.43
-37.45
-9.11
16.98
41.20
64.34
87.09
109.85
132.83
156.26
180.25
204.66
228.91
252.25
274.12
294.41
313.33
330.79
345.91
356.84
361.29
357.51
345.33
327.04
307.45
293.12
290.54
303.75
332.47
371.45
411.86
444.21
461.63
461.92
447.37
422.90
393.25
360.99
326.11
286.93
241.17
186.72
122.04
46.86
-36.66
-122.94
-203.19
-267.44
-307.77
-321.18
-310.56
-283.12
-247.12
-208.62
-169.98
-130.09
-85.92
-34.44
25.89
93.99
165.57
233.34
288.42
322.73
331.79
316.29
281.50
235.20
184.73
135.07
88.57
45.75
6.34
-30.54
-66.39
-103.04
-141.27
-179.33
-212.38
-233.95
-238.90
-226.12
-199.57
-167.09
-137.53
-118.04
-113.07
-124.84
-154.28
-200.97
-261.97
-330.49
-395.85
-445.77
-470.09
-464.29
-430.82
-377.65
-315.17
-252.62
-196.03
-148.08
-109.23
-79.35
-58.55
-47.09
-44.81
-50.63
-62.60
-78.66
-97.41
-118.49
-142.15
-168.23
-194.98
-218.82
-235.13
-239.75
-230.66
-208.67
-177.00
-139.85
-100.92
-62.50
-25.44
10.06
43.66
74.37
100.75
121.50
136.05
144.84
149.05
150.07
148.80
145.33
139.23
130.17
118.67
106.62
97.11
93.31
97.07
107.72
121.91
134.66
141.18
138.72
127.40
110.10
91.32
75.49
65.56
62.66
66.52
75.98
89.51
105.23
120.86
134.07
143.23
148.25
150.90
154.16
160.85
172.41
188.30
206.17
222.73
234.37
237.56
229.15
207.12
171.69
126.40
78.08
34.98
3.86
-12.81
-18.31
-20.84
-30.67
-56.12
-100.17
-158.78
-221.66
-275.33
-307.27
-309.62
-281.10
-226.77
-155.94
-79.81
-9.36
45.97
79.45
88.46
75.90
50.56
25.21
12.84
21.77
52.47
97.27
143.60
178.86
194.98
190.68
170.81
143.40
116.41
95.17
81.75
75.75
75.79
80.42
88.23
97.26
104.49
106.23
99.45
83.35
60.27
35.07
13.15
-1.92
-9.84
-13.34
-16.51
-22.52
-32.14
-43.66
-54.05
-60.62
-62.29
-59.78
-54.88
-49.47
-44.85
-41.67
-40.34
-41.49
-45.85
-53.73
-64.18
-74.65
-81.58
-81.75
-73.82
-59.17
-41.59
-25.70
-15.09
-11.14
-13.01
-18.72
-26.52
-35.66
-46.24
-58.34
-71.23
-83.35
-92.94
-98.95
-101.51
-101.68
-100.62
-98.83
-95.89
-90.77
-82.59
-71.24
-57.48
-42.63
-28.00
-14.50
-2.58
7.70
16.33
23.38
28.95
33.51
37.81
42.78
49.15
57.06
65.85
74.28
80.89
84.52
84.67
81.61
76.11
69.11
61.37
53.31
44.97
36.21
26.85
16.76
5.85
-5.91
-18.46
-31.45
-44.14
-55.33
-63.68
-68.12
-68.17
-64.19
-57.21
-48.48
-39.12
-29.87
-21.06
-12.90
-5.59
0.61
5.46
8.90
11.10
12.39
13.10
13.40
13.23
12.40
10.76
8.28
5.17
1.72
-1.74
-4.99
-7.84
-10.19
-11.98
-13.31
-14.43
-15.84
-18.04
-21.42
-26.03
-31.63
-37.84
-44.25
-50.50
-56.24
-60.91
-63.80
-64.11
-61.31
-55.37
-46.84
-36.76
-26.25
-16.20
-7.08
1.03
8.16
14.35
19.48
23.43
26.15
27.79
28.64
29.04
29.18
29.06
28.55
27.54
26.07
24.32
22.50
20.78
19.11
17.34
15.24
12.60
9.37
5.63
1.54
-2.65
-6.77
-10.70
-14.49
-18.35
-22.61
-27.53
-33.09
-38.79
-43.72
-46.77
-47.02
-44.15
-38.55
-31.17
-23.13
-15.30
-8.08
-1.41
4.86
10.80
16.17
20.59
23.76
25.70
26.76
27.50
28.41
29.72
31.33
32.93
34.13
34.59
34.06
32.42
29.68
26.04
21.85
17.49
13.20
9.03
4.85
0.49
-4.10
-8.80
-13.33
-17.51
-21.27
-24.75
-28.16
-31.66
-35.32
-39.10
-42.79
-46.09
-48.49
-49.39
-48.21
-44.64
-38.72
-30.91
-21.90
-12.43
-3.04
5.89
14.19
21.78
28.53
34.37
39.18
42.89
45.48
47.07
47.88
48.24
48.42
48.61
48.78
48.79
48.48
47.76
46.72
45.47
44.19
42.95
41.79
40.69
39.63
38.59
37.45
36.02
34.13
31.66
28.63
25.18
21.39
17.24
12.50
6.83
-0.09
-8.32
-17.62
-27.34
-36.55
-44.19
-49.35
-51.41
-50.34
-46.60
-41.11
-34.86
-28.72
-23.27
-18.75
-15.25
-12.86
-11.70
-11.96
-13.69
-16.76
-20.67
-24.67
-27.97
-30.01
-30.83
-31.07
-31.90
-34.51
-39.59
-46.99
-55.75
-64.50
-72.00
-77.69
-81.90
-85.59
-89.80
-95.04
-100.75
-105.37
-106.83
-103.56
-95.34
-83.58
-70.73
-59.24
-50.42
-44.04
-38.75
-32.87
-25.09
-14.64
-1.16
15.19
33.27
50.37
62.11
63.54
51.09
24.50
-12.39
-52.74
-89.34
-117.21
-134.83
-143.56
-145.49
-141.49
-130.32
-109.54
-77.26
-33.80
17.75
72.37
124.89
171.72
211.85
246.36
277.02
304.60
328.04
345.06
353.76
354.58
351.04
348.67
352.49
364.21
380.73
395.01
398.90
386.49
356.44
312.15
259.94
206.42
156.35
111.75
72.39
36.99
4.42
-25.48
-51.80
-72.99
-87.56
-94.75
-95.03
-90.24
-83.33
-77.77
-76.60
-81.56
-92.34
-106.27
-118.64
-123.80
-116.83
-95.23
-60.10
-16.22
29.14
68.42
96.09
110.59
115.02
116.26
122.44
139.77
169.98
209.37
250.16
283.34
301.94
302.90
287.14
258.04
219.38
174.18
124.68
73.18
22.65
-23.50
-62.54
-93.52
-117.62
-137.51
-156.01
-174.86
-194.38
-213.71
-231.57
-246.84
-258.62
-266.19
-268.99
-266.89
-260.48
-251.31
-241.54
-233.33
-228.31
-227.18
-229.94
-236.14
-245.12
-255.94
-267.16
-276.92
-283.34
-285.17
-282.43
-276.61
-270.30
-266.60
-268.34
-277.25
-293.45
-315.38
-340.27
-364.84
-386.35
-403.09
-414.65
-421.30
-423.19
-419.78
-409.61
-390.87
-362.12
-323.02
-274.53
-218.70
-158.01
-94.79
-30.87
32.50
94.56
154.83
213.18
269.86
325.58
381.62
439.40
499.52
560.69
619.23
669.78
707.04
727.80
731.90
721.39
698.76
665.06
619.29
559.59
485.23
397.73
300.68
198.87
97.54
2.56
-79.47
-141.99
-180.62
-195.74
-193.48
-183.98
-177.37
-179.79
-191.77
-209.78
-229.64
-249.17
-268.69
-289.21
-310.08
-328.22
-339.30
-340.23
-331.15
-315.42
-297.88
-282.47
-270.39
-259.83
-247.53
-230.88
-209.49
-185.28
-161.36
-140.27
-122.80
-107.91
-93.38
-76.86
-56.50
-31.14
-0.24
35.87
75.21
113.76
145.86
165.83
169.88
157.73
132.69
100.39
66.76
36.37
11.60
-7.26
-21.46
-33.26
-45.19
-59.39
-76.83
-97.16
-118.84
-140.09
-160.09
-179.82
-202.08
-230.03
-265.20
-305.86
-346.66
-380.21
-399.69
-401.34
-385.62
-356.45
-318.88
-276.81
-231.80
-183.86
-133.68
-84.57
-42.69
-15.10
-6.36
-15.57
-35.90
-57.03
-69.12
-66.76
-50.47
-25.52
1.35
25.40
45.63
64.46
85.41
110.97
141.53
176.03
213.06
250.87
287.09
318.07
339.23
346.79
340.17
323.08
302.80
286.96
279.44
279.09
281.38
281.79
278.89
275.57
276.75
286.87
307.71
336.89
370.83
407.27
445.65
485.03
522.11
549.67
559.30
544.96
503.62
437.69
354.30
262.28
168.56
77.60
-9.22
-90.09
-161.83
-223.78
-277.12
-323.98
-366.31
-405.17
-439.17
-467.07
-486.40
-479.28
-435.60
-360.22
-271.55
-189.15
-130.45
-92.08
-70.07
-62.52
-68.69
-87.67
-116.21
-146.00
-165.22
-163.16
-133.59
-79.07
-7.51
70.93
144.75
204.81
246.35
268.61
272.93
261.94
237.29
201.51
158.08
109.19
56.19
0.03
-58.43
-118.55
-179.36
-240.28
-299.81
-355.27
-404.04
-443.50
-471.13
-484.93
-484.10
-469.35
-443.38
-409.90
-372.71
-335.13
-299.44
-266.56
-236.40
-208.44
-182.18
-157.59
-134.77
-113.73
-94.25
-76.09
-59.14
-43.50
-29.48
-17.50
-7.82
-0.44
4.94
8.77
11.53
13.58
15.11
16.12
16.54
16.34
15.55
14.36
13.00
11.70
10.59
9.71
8.98
8.21
7.24
5.95
4.30
2.38
0.28
-1.85
-3.94
-5.99
-8.08
-10.29
-12.69
-15.22
-17.64
-19.57
-20.53
-20.07
-17.84
-13.66
-7.49
0.60
10.49
22.15
35.57
50.74
67.59
85.85
105.02
124.46
143.43
161.21
177.23
191.09
202.74
212.62
221.73
231.41
242.72
255.65
268.65
278.83
282.95
278.72
265.73
245.63
221.42
196.41
173.42
154.49
141.04
133.95
133.46
138.83
148.23
159.14
169.11
176.63
181.42
184.10
185.50
186.13
186.08
185.23
183.72
181.99
180.60
179.79
179.12
177.66
174.33
168.55
160.69
152.14
145.01
141.66
144.08
153.29
168.98
189.31
211.09
230.56
244.48
251.03
250.34
244.05
234.44
223.34
211.50
198.60
183.91
166.95
148.06
128.37
109.49
93.08
80.53
72.69
69.89
71.81
77.60
85.95
95.28
103.80
109.76
111.69
108.68
100.69
88.40
72.82
54.60
33.65
9.27
-19.18
-51.48
-86.19
-120.97
-153.61
-183.14
-210.40
-237.73
-267.94
-303.06
-343.33
-386.88
-430.01
-467.84
-495.25
-507.76
-502.43
-478.33
-436.94
-381.84
-318.16
-251.63
-187.59
-130.10
-81.42
-42.02
-11.16
12.41
29.86
42.18
50.58
56.95
63.86
73.88
88.47
107.08
127.27
145.89
160.87
172.32
182.35
193.50
206.84
220.97
232.72
239.16
239.72
236.66
233.86
234.50
239.17
245.57
249.92
248.94
241.36
227.92
210.52
191.03
170.77
150.72
131.86
115.15
101.01
88.69
76.26
61.25
41.75
17.11
-11.99
-43.97
-76.99
-109.18
-138.56
-163.04
-180.60
-190.00
-191.56
-187.41
-180.94
-175.66
-173.84
-175.65
-179.33
-182.16
-181.76
-177.09
-168.70
-158.30
-147.76
-138.31
-130.07
-122.25
-113.75
-103.72
-91.93
-78.78
-65.01
-51.31
-38.04
-25.16
-12.41
0.51
13.59
26.51
38.56
48.81
56.29
60.23
60.22
56.40
49.45
40.48
30.76
21.35
12.79
5.09
-2.17
-9.47
-17.10
-24.99
-32.84
-40.32
-47.33
-53.99
-60.59
-67.39
-74.33
-80.90
-86.12
-88.74
-87.64
-82.39
-73.55
-62.74
-52.20
-44.02
-39.43
-38.41
-39.72
-41.53
-42.19
-40.97
-38.38
-36.05
-36.06
-40.12
-48.95
-61.91
-77.15
-92.14
-104.29
-111.51
-112.66
-107.81
-98.37
-87.07
-77.58
-73.43
-76.71
-86.86
-100.63
-113.20
-120.37
-120.42
-114.83
-106.94
-99.80
-94.16
-88.23
-79.04
-64.65
-45.23
-22.63
1.40
26.74
55.04
88.14
126.28
167.05
205.98
238.41
261.04
272.75
274.45
268.27
257.10
244.45
234.16
229.57
232.24
240.69
250.19
254.12
246.49
224.49
189.67
147.01
102.52
60.35
21.02
-18.47
-62.55
-114.34
-173.45
-235.59
-294.00
-341.65
-373.27
-386.39
-381.33
-360.73
-329.14
-292.50
-257.54
-230.53
-215.73
-213.93
-221.88
-232.93
-238.77
-232.17
-209.42
-171.83
-125.53
-79.52
-42.61
-20.10
-11.89
-12.54
-13.35
-5.45
17.04
55.12
104.79
158.34
206.69
241.62
257.42
251.91
226.61
186.14
137.05
86.27
39.56
0.58
-29.21
-49.91
-62.40
-67.51
-65.96
-58.51
-46.43
-31.79
-17.38
-6.26
-0.94
-2.66
-11.05
-24.25
-39.43
-53.81
-65.34
-72.95
-76.16
-74.54
-67.33
-53.87
-34.56
-11.78
9.93
25.04
29.12
20.71
2.19
-21.02
-42.35
-56.06
-58.54
-48.68
-27.45
2.70
38.34
75.24
108.69
133.84
146.61
144.78
129.07
103.58
75.24
52.12
41.03
45.36
63.96
91.64
121.29
146.42
163.09
170.36
169.24
161.14
146.84
126.41
100.25
70.08
39.15
11.36
-10.25
-24.99
-34.80
-43.37
-54.50
-70.54
-91.52
-115.48
-139.24
-159.54
-173.82
-180.51
-179.15
-170.15
-154.64
-134.15
-110.37
-84.72
-58.17
-31.31
-4.51
21.72
46.55
68.82
87.25
100.81
109.18
112.95
113.37
111.96
109.59
105.85
98.83
85.71
63.89
32.47
-6.68
-48.89
-87.83
-117.80
-135.93
-143.36
-144.71
-145.76
-150.56
-159.44
-168.82
-173.10
-167.49
-150.12
-122.64
-89.11
-54.12
-21.18
7.79
32.00
51.07
64.55
72.23
74.67
73.52
71.33
70.79
73.69
80.30
89.40
98.77
106.06
109.45
108.06
102.07
92.50
80.94
69.17
58.65
50.20
43.77
38.46
32.99
26.14
17.03
5.30
-9.03
-25.76
-44.38
-63.89
-82.50
-97.79
-107.07
-108.27
-100.73
-85.48
-65.00
-42.42
-20.61
-1.53
13.95
25.80
34.38
40.19
43.81
45.94
47.50
49.43
52.38
56.52
61.34
65.90
69.17
70.41
69.45
66.67
62.87
58.94
55.54
52.95
50.96
49.07
46.66
43.33
39.07
34.33
29.83
26.25
23.93
22.63
21.54
19.59
15.80
9.84
2.28
-5.38
-11.10
-12.98
-9.97
-2.22
8.89
21.33
33.13
42.93
50.15
54.84
57.20
57.30
55.06
50.48
43.91
36.22
28.55
21.93
16.79
12.84
9.22
4.99
-0.32
-6.54
-12.96
-18.85
-23.79
-27.95
-31.89
-36.26
-41.42
-47.34
-53.67
-59.95
-65.86
-71.26
-76.22
-80.97
-85.85
-91.30
-97.76
-105.45
-114.12
-122.87
-130.19
-134.28
-133.59
-127.39
-116.05
-100.96
-84.11
-67.46
-52.53
-40.14
-30.52
-23.56
-19.04
-16.66
-16.01
-16.48
-17.27
-17.58
-16.81
-14.84
-11.93
-8.69
-5.67
-3.12
-0.90
1.33
3.84
6.57
9.01
10.40
10.03
7.61
3.45
-1.60
-6.48
-10.32
-12.80
-14.24
-15.47
-17.52
-21.31
-27.36
-35.57
-45.04
-54.05
-60.22
-61.07
-54.80
-40.98
-20.92
2.70
26.69
48.39
66.30
80.19
90.55
98.04
103.06
105.76
106.33
105.23
103.23
101.16
99.59
98.66
98.08
97.40
96.24
94.49
92.31
89.84
87.00
83.23
77.56
68.96
56.88
41.76
25.15
9.39
-3.29
-11.53
-15.44
-16.51
-17.00
-19.16
-24.59
-33.97
-47.00
-62.51
-78.56
-92.65
-102.12
-104.88
-100.07
-88.48
-72.38
-54.68
-38.05
-24.14
-13.45
-5.71
-0.50
2.41
3.01
1.31
-2.23
-6.59
-10.40
-12.34
-11.64
-8.37
-3.40
1.91
6.16
8.37
8.28
6.50
4.22
2.93
3.75
6.90
11.52
15.84
17.79
15.76
9.09
-1.90
-16.19
-32.47
-49.28
-65.23
-79.20
-90.74
-100.30
-108.99
-117.87
-126.96
-134.72
-138.41
-135.35
-124.40
-106.80
-85.70
-64.84
-46.99
-33.01
-21.92
-11.75
-0.73
12.21
27.19
43.60
60.71
78.07
95.78
114.54
135.70
161.08
192.43
230.45
273.73
318.12
357.34
384.75
395.55
388.67
366.88
335.46
299.70
262.78
224.97
184.29
138.30
86.08
29.49
-26.70
-75.98
-111.90
-129.96
-129.04
-111.81
-83.91
-52.44
-24.42
-5.60
0.30
-8.00
-29.28
-59.81
-93.98
-125.45
-148.70
-160.28
-159.39
-147.47
-127.40
-102.63
-76.73
-52.72
-32.49
-16.01
-1.18
15.74
38.57
69.08
105.32
141.11
167.32
174.22
154.79
107.52
37.91
-42.22
-117.46
-172.84
-197.87
-189.10
-150.67
-92.64
-28.05
30.39
72.72
93.17
90.40
66.81
27.38
-21.79
-74.91
-127.66
-177.67
-224.21
-267.15
-305.98
-339.46
-365.87
-383.85
-392.91
-393.44
-386.07
-370.91
-347.48
-315.41
-275.58
-230.85
-185.74
-144.92
-111.51
-85.95
-66.41
-50.35
-36.33
-24.94
-18.17
-17.80
-23.85
-33.78
-43.37
-48.24
-45.39
-33.80
-14.10
12.27
43.60
77.75
111.78
141.82
163.83
174.92
174.64
165.35
151.33
137.10
125.86
118.65
114.59
111.69
107.83
101.50
91.98
79.47
64.90
49.77
35.69
23.97
15.25
9.41
5.65
2.94
0.34
-2.61
-5.66
-7.85
-7.76
-3.99
4.10
15.88
29.36
41.70
50.31
53.89
52.96
49.68
46.81
46.65
50.17
56.80
64.80
72.02
76.68
77.88
75.93
71.95
67.44
63.82
62.04
62.56
65.51
70.90
78.64
88.55
100.01
111.75
122.04
129.07
131.38
128.14
119.14
104.79
86.25
65.08
43.15
22.40
4.50
-9.44
-19.19
-25.34
-29.09
-31.13
-32.20
-32.87
-33.30
-32.97
-30.73
-25.18
-15.21
-0.34
20.54
47.33
78.75
112.79
147.40
180.93
211.86
238.79
260.16
276.57
287.60
291.70
286.94
272.74
251.01
225.82
202.32
184.74
177.56
180.60
188.86
194.79
191.85
177.01
151.01
117.36
63.73
-10.38
-94.59
-172.05
-229.11
-261.10
-271.05
-265.90
-251.89
-233.72
-209.86
-177.64
-135.54
-84.55
-28.00
29.47
79.79
115.72
132.29
130.66
115.24
91.90
66.09
41.55
19.78
-0.01
-19.60
-40.99
-64.02
-88.10
-112.74
-137.71
-162.56
-186.39
-208.01
-225.87
-238.69
-245.04
-244.52
-238.00
-227.41
-215.14
-203.35
-193.55
-186.14
-180.67
-175.84
-170.35
-163.23
-154.07
-142.80
-129.51
-114.32
-97.30
-78.65
-58.72
-38.05
-17.36
2.54
20.74
36.42
48.99
58.21
64.29
67.79
69.44
69.81
69.20
67.61
64.90
61.04
56.26
51.03
45.93
41.38
37.53
34.18
30.89
27.16
22.57
16.94
10.39
3.23
-4.07
-11.10
-17.62
-23.61
-29.30
-35.06
-41.19
-47.75
-54.37
-60.24
-64.20
-65.10
-62.11
-55.04
-44.43
-31.41
-17.37
-3.56
9.13
20.23
29.61
37.23
43.05
47.01
49.08
49.45
48.51
46.81
44.93
43.22
41.81
40.53
39.14
37.42
35.31
32.83
30.02
26.87
23.25
19.03
14.12
8.51
2.25
-4.51
-11.57
-18.65
-25.46
-31.73
-37.37
-42.46
-47.34
-52.38
-57.93
-64.18
-71.11
-78.31
-85.03
-90.15
-92.40
-90.65
-84.31
-73.55
-59.32
-43.02
-26.15
-9.92
4.93
18.07
29.44
39.05
46.90
53.03
57.45
60.30
61.72
61.91
61.09
59.51
57.47
55.29
53.26
51.56
50.17
48.86
47.29
45.11
42.11
38.20
33.54
28.41
23.17
18.13
13.52
9.35
5.45
1.57
-2.54
-6.96
-11.56
-16.08
-20.27
-24.06
-27.67
-31.55
-36.26
-42.25
-49.51
-57.46
-64.82
-69.87
-70.94
-66.91
-57.64
-44.08
-28.00
-11.38
4.10
17.42
28.35
37.05
43.87
48.98
52.40
54.09
54.15
52.90
50.83
48.39
45.84
43.19
40.24
36.82
32.92
28.76
24.63
20.76
17.19
13.79
10.34
6.67
2.71
-1.53
-6.04
-10.79
-15.76
-20.83
-25.79
-30.40
-34.49
-38.06
-41.33
-44.65
-48.42
-52.98
-58.52
-64.93
-71.66
-77.76
-81.98
-83.03
-80.06
-72.90
-62.22
-49.32
-35.66
-22.53
-10.69
-0.42
8.35
15.76
21.90
26.77
30.42
32.97
34.71
36.01
37.20
38.47
39.83
41.14
42.18
42.71
42.50
41.44
39.53
36.90
33.79
30.51
27.26
24.13
21.00
17.64
13.84
9.53
4.81
-0.05
-4.76
-9.13
-13.11
-16.82
-20.49
-24.49
-29.21
-35.03
-42.10
-50.10
-58.08
-64.47
-67.48
-65.68
-58.54
-46.72
-31.87
-16.06
-1.14
11.78
22.35
30.75
37.30
42.23
45.63
47.61
48.40
48.41
48.06
47.64
47.22
46.65
45.70
44.15
41.91
38.96
35.35
31.19
26.61
21.75
16.74
11.71
6.78
1.98
-2.64
-7.05
-11.18
-15.00
-18.55
-21.99
-25.54
-29.45
-33.89
-38.95
-44.49
-50.34
-56.31
-62.40
-68.80
-75.79
-83.40
-91.21
-98.18
-102.79
-103.41
-98.89
-89.09
-75.08
-58.79
-42.55
-28.46
-17.90
-11.14
-7.42
-5.26
-3.21
-0.37
3.40
7.30
9.86
9.25
3.83
-7.15
-23.09
-41.75
-59.10
-69.73
-68.83
-54.41
-28.87
1.10
26.95
41.57
41.83
29.33
9.47
-10.81
-24.88
-28.67
-22.13
-7.87
11.45
33.89
57.21
80.10
100.64
116.71
127.21
132.65
134.81
135.89
137.72
138.17
136.48
132.52
126.84
120.38
114.05
108.62
104.65
102.18
100.62
99.14
95.98
88.89
75.90
56.14
30.50
1.60
-27.15
-52.69
-72.85
-87.34
-97.46
-105.25
-112.57
-120.40
-128.49
-135.59
-139.83
-139.11
-132.06
-118.62
-100.23
-79.64
-60.26
-45.02
-35.49
-31.27
-30.17
-29.19
-25.67
-18.04
-6.02
9.83
28.91
51.03
76.42
105.25
136.99
170.36
203.69
235.74
266.04
294.68
321.15
343.42
357.75
359.84
346.61
317.86
276.69
228.44
178.68
131.37
87.99
47.58
7.42
-35.91
-85.39
-142.00
-203.36
-263.22
-312.50
-341.82
-344.54
-319.00
-268.78
-201.15
-124.80
-47.83
23.02
82.46
126.85
154.94
168.84
173.96
177.40
185.08
199.14
217.02
232.86
240.25
235.01
216.52
187.43
152.14
115.17
80.07
48.93
22.48
0.35
-18.63
-35.76
-51.92
-67.10
-80.52
-91.34
-99.42
-105.79
-112.54
-122.36
-137.82
-161.17
-193.66
-234.76
-281.24
-326.47
-361.11
-375.03
-360.66
-316.11
-246.84
-164.51
-83.46
-16.13
30.82
57.75
70.72
78.19
87.56
102.78
123.74
147.15
168.17
182.01
185.02
175.16
152.18
117.61
74.62
27.88
-17.05
-54.52
-80.00
-91.62
-91.04
-83.21
-74.79
-71.80
-77.83
-93.46
-117.10
-146.25
-178.14
-209.15
-234.02
-245.95
-238.37
-207.89
-156.94
-94.33
-32.80
15.28
42.12
46.64
33.84
11.90
-11.17
-29.75
-41.26
-45.44
-43.23
-36.12
-25.99
-15.31
-7.16
-4.81
-10.94
-26.62
-50.59
-79.31
-108.06
-132.50
-150.09
-160.90
-166.97
-170.75
-173.27
-173.09
-166.48
-148.96
-117.49
-72.03
-15.88
45.34
105.35
158.77
202.01
233.25
252.06
258.86
254.63
240.88
219.69
193.71
165.71
138.03
112.07
88.17
65.92
44.84
24.90
6.67
-9.00
-21.50
-30.80
-37.55
-42.82
-47.66
-52.72
-58.35
-64.64
-71.73
-79.84
-89.06
-98.95
-108.23
-114.91
-116.97
-113.22
-104.00
-91.12
-77.09
-64.03
-53.02
-43.97
-36.28
-29.58
-23.99
-20.01
-18.01
-17.89
-19.09
-20.88
-22.65
-24.03
-24.87
-25.08
-24.50
-23.09
-20.93
-18.21
-15.10
-11.61
-7.72
-3.66
-0.15
1.47
-0.36
-6.90
-18.54
-34.61
-53.52
-73.10
-90.89
-104.49
-111.74
-111.04
-101.76
-84.57
-61.43
-35.17
-8.68
15.75
36.86
54.31
68.29
78.98
86.41
90.48
91.15
88.67
83.59
76.74
68.99
61.16
53.76
46.90
40.18
32.63
22.81
9.14
-9.54
-33.39
-61.19
-90.47
-118.11
-141.35
-158.58
-169.61
-175.17
-176.02
-172.19
-162.89
-147.10
-124.55
-96.25
-64.35
-31.23
1.30
32.41
62.03
90.24
116.86
141.43
163.51
182.99
200.06
214.92
227.43
237.08
243.30
245.89
245.24
242.30
238.09
233.26
227.79
221.09
212.31
200.74
186.07
168.53
148.86
127.99
106.89
86.31
66.70
48.19
30.71
14.04
-2.06
-17.84
-33.43
-48.76
-63.46
-76.76
-87.65
-95.17
-98.75
-98.51
-95.35
-90.66
-85.82
-81.74
-78.56
-75.80
-72.78
-69.02
-64.48
-59.48
-54.47
-49.66
-45.07
-40.54
-35.93
-31.23
-26.50
-21.79
-16.99
-11.98
-6.73
-1.50
3.21
6.84
9.10
10.15
10.55
10.99
11.86
13.14
14.26
14.45
12.86
8.80
1.77
-8.40
-21.31
-35.71
-49.53
-60.23
-65.58
-64.46
-57.31
-45.89
-32.50
-18.99
-6.19
6.09
18.46
31.26
44.20
56.50
67.41
76.75
85.06
93.41
102.83
113.75
125.92
138.62
151.12
163.26
175.43
188.30
202.33
217.44
233.07
248.54
263.43
277.63
291.06
303.27
313.27
319.87
322.08
319.54
312.53
301.59
287.06
268.96
247.18
221.96
194.16
165.28
136.99
110.62
86.78
65.28
45.41
26.24
6.91
-13.10
-33.93
-55.30
-76.63
-97.37
-117.17
-136.25
-155.44
-176.05
-199.54
-226.91
-257.99
-291.11
-323.24
-350.87
-371.12
-382.85
-387.11
-386.84
-385.84
-387.54
-393.96
-405.15
-419.16
-432.62
-441.62
-443.05
-435.64
-420.51
-400.73
-380.00
-361.04
-344.51
-328.99
-312.03
-291.63
-267.13
-239.22
-209.09
-177.45
-143.93
-107.41
-66.82
-21.98
26.35
76.67
127.61
178.53
229.72
282.13
336.93
395.02
456.75
521.66
587.96
652.20
709.17
752.37
775.44
773.78
746.06
694.63
624.79
543.11
455.65
366.87
279.35
194.36
112.51
34.28
-39.89
-109.89
-175.99
-238.92
-299.48
-358.26
-415.26
-470.01
-521.90
-570.59
-616.41
-660.18
-702.41
-742.46
-778.07
-805.85
-822.60
-826.56
-817.84
-797.96
-768.50
-730.31
-683.50
-628.36
-566.51
-501.27
-436.96
-377.42
-324.83
-279.29
-239.51
-203.91
-171.44
-141.74
-114.69
-90.04
-67.09
-44.87
-22.43
0.82
24.98
49.65
74.20
97.92
120.31
141.18
160.71
179.36
197.67
216.11
234.90
253.94
272.89
291.36
309.05
325.95
342.29
358.45
374.87
391.97
410.33
430.66
453.51
478.72
504.85
529.04
547.56
556.83
554.61
540.67
516.80
486.10
452.08
417.81
385.56
356.82
332.42
312.57
296.82
283.96
272.11
259.03
242.73
222.09
197.31
170.07
143.10
119.17
99.98
85.32
73.10
60.15
43.60
22.09
-3.76
-31.78
-59.37
-84.38
-105.63
-122.56
-134.74
-141.43
-141.74
-135.18
-122.12
-103.89
-82.35
-59.31
-36.05
-13.39
7.92
26.59
40.52
47.05
43.76
29.60
5.72
-24.33
-55.39
-82.14
-100.75
-109.92
-110.83
-106.26
-99.24
-92.21
-86.52
-82.56
-80.11
-78.60
-77.41
-76.09
-74.55
-73.06
-71.86
-70.68
-68.67
-64.79
-58.71
-51.46
-45.35
-43.04
-46.30
-55.26
-68.74
-84.96
-102.39
-119.60
-134.68
-144.78
-146.62
-137.84
-118.52
-91.65
-62.13
-34.76
-12.37
4.80
18.24
29.58
39.38
46.96
51.34
52.44
51.73
51.76
55.23
63.80
77.53
94.94
113.43
129.91
141.20
144.27
136.77
117.76
88.20
51.20
11.12
-27.89
-63.57
-96.13
-127.64
-160.26
-194.35
-228.00
-257.77
-280.54
-295.03
-302.27
-304.81
-305.17
-304.54
-302.15
-295.83
-282.89
-261.33
-230.67
-192.12
-148.20
-101.89
-55.45
-9.76
35.91
83.32
134.38
190.09
249.63
309.66
364.33
406.26
428.37
426.46
401.23
358.74
308.59
260.42
220.52
189.99
165.59
142.39
116.64
87.10
54.35
19.17
-18.65
-60.24
-106.31
-156.10
-207.10
-255.72
-298.49
-333.09
-358.59
-375.20
-383.86
-386.15
-384.09
-379.89
-375.26
-370.84
-365.98
-359.25
-349.26
-335.45
-318.12
-297.93
-275.15
-249.44
-220.06
-186.55
-149.37
-110.11
-71.23
-35.45
-4.89
19.47
38.00
52.13
63.77
74.66
86.09
98.88
113.67
131.00
151.15
173.79
197.78
221.31
242.27
258.87
270.01
275.48
275.71
271.26
262.46
249.40
232.59
213.40
194.36
178.72
169.50
168.21
174.06
184.20
195.08
204.26
211.24
217.26
223.80
231.31
238.67
243.95
245.74
244.04
240.58
237.06
233.90
229.74
222.40
210.38
193.94
175.15
156.99
143.33
136.47
136.42
141.06
147.35
152.45
154.25
151.49
143.82
134.30
125.99
120.59
117.54
115.04
111.56
106.63
100.80
95.26
95.00
103.10
118.95
137.82
153.44
161.04
158.55
146.38
126.71
108.00
97.77
100.45
115.68
140.16
169.98
201.43
230.95
223.53
159.72
42.87
-100.50
-239.37
-354.02
-438.39
-494.70
-528.26
-544.59
-542.33
-522.74
-488.56
-445.65
-400.46
-357.21
-316.85
-277.82
-237.31
-188.35
-130.18
-65.53
-1.98
51.42
88.00
105.41
105.28
91.60
71.29
49.57
29.44
11.11
-6.02
-21.68
-34.61
-43.59
-48.32
-48.47
-44.84
-38.52
-31.15
-24.17
-18.18
-13.15
-8.86
-5.29
-2.29
-0.12
1.09
1.15
0.15
-1.46
-3.06
-4.30
-5.21
-6.20
-7.76
-10.06
-12.96
-16.11
-19.19
-22.12
-25.09
-28.43
-32.42
-37.07
-42.05
-46.90
-51.19
-54.70
-57.50
-59.91
-62.46
-65.78
-70.36
-76.34
-83.26
-89.88
-94.38
-94.84
-89.89
-79.26
-63.95
-45.93
-27.44
-10.31
4.50
16.88
27.17
35.75
42.66
47.68
50.55
51.26
50.24
48.28
46.28
44.86
44.18
43.87
43.24
41.63
38.76
34.82
30.38
26.06
22.20
18.75
15.25
11.10
5.89
-0.46
-7.65
-15.08
-22.09
-28.15
-33.02
-36.83
-40.06
-43.44
-47.78
-53.71
-61.40
-70.44
-79.70
-87.45
-91.65
-90.51
-83.04
-69.44
-51.25
-30.91
-11.06
6.19
19.84
30.07
37.82
44.17
49.78
54.67
58.44
60.69
61.43
61.10
60.44
60.01
59.92
59.77
58.89
56.80
53.47
49.40
45.39
42.11
39.79
38.15
36.56
34.37
31.19
27.04
22.19
16.93
11.32
5.18
-1.78
-9.75
-18.64
-28.07
-37.68
-47.23
-56.77
-66.40
-75.86
-84.30
-90.23
-91.95
-88.18
-78.66
-64.29
-46.92
-28.71
-11.53
3.41
15.57
24.81
31.10
34.44
34.90
32.75
28.66
23.57
18.59
14.70
12.50
12.08
13.04
14.69
16.32
17.46
17.93
17.74
16.96
15.44
12.89
8.98
3.58
-3.01
-10.10
-16.79
-22.25
-26.04
-28.17
-29.09
-29.50
-30.21
-32.02
-35.63
-41.54
-49.76
-59.61
-69.66
-77.85
-82.09
-80.90
-73.94
-62.21
-47.59
-32.23
-17.79
-5.08
5.89
15.44
23.84
31.05
36.79
40.82
43.24
44.51
45.28
46.10
47.12
48.07
48.44
47.75
45.78
42.61
38.57
34.10
29.61
25.37
21.50
17.97
14.53
10.89
6.74
1.94
-3.38
-8.86
-14.06
-18.62
-22.46
-25.78
-29.02
-32.70
-37.35
-43.40
-51.02
-59.82
-68.72
-75.90
-79.15
-76.63
-67.54
-52.56
-33.70
-13.71
4.87
20.38
32.32
41.11
47.55
52.38
56.03
58.68
60.41
61.38
61.86
62.08
62.14
61.91
61.16
59.65
57.35
54.53
51.58
48.82
46.30
43.72
40.57
36.41
31.13
25.08
18.93
13.29
8.48
4.30
0.30
-4.05
-8.98
-14.34
-19.71
-24.66
-28.98
-32.80
-36.57
-40.96
-46.58
-53.83
-62.66
-72.39
-81.57
-88.28
-90.49
-86.81
-77.06
-62.37
-44.96
-27.32
-11.51
1.35
11.14
18.34
23.58
27.31
29.73
30.93
31.12
30.65
29.93
29.27
28.76
28.32
27.75
26.96
25.96
24.92
24.01
23.30
22.58
21.48
19.56
16.55
12.52
7.94
3.46
-0.31
-3.08
-5.05
-6.80
-8.99
-12.11
-16.21
-20.89
-25.51
-29.47
-32.46
-34.66
-36.67
-39.31
-43.39
-49.39
-57.18
-65.85
-73.73
-78.68
-78.74
-72.73
-60.78
-44.32
-25.68
-7.32
8.88
22.00
32.01
39.37
44.62
48.10
49.97
50.42
49.85
48.79
47.84
47.35
47.34
47.48
47.28
46.36
44.61
42.22
39.55
36.91
34.35
31.69
28.62
24.97
20.77
16.34
12.08
8.26
4.88
1.65
-1.86
-5.99
-10.80
-16.00
-21.06
-25.46
-28.94
-31.63
-33.99
-36.76
-40.64
-46.18
-53.54
-62.32
-71.40
-79.01
-83.03
-81.64
-73.97
-60.56
-43.33
-24.95
-7.93
6.11
16.77
24.58
30.46
35.10
38.77
41.36
42.78
43.13
42.78
42.23
41.82
41.58
41.26
40.49
39.04
36.99
34.71
32.67
31.18
30.14
29.14
27.58
25.01
21.36
17.02
12.59
8.65
5.46
2.90
0.53
-2.20
-5.69
-10.02
-14.90
-19.80
-24.16
-27.62
-30.18
-32.25
-34.54
-37.85
-42.88
-49.91
-58.65
-68.04
-76.35
-81.49
-81.57
-75.57
-63.77
-47.73
-29.86
-12.59
2.33
14.18
23.21
30.09
35.49
39.72
42.82
44.75
45.65
45.94
46.09
46.46
47.03
47.51
47.46
46.58
44.92
42.84
40.79
39.06
37.68
36.28
34.39
31.60
27.82
23.27
18.47
13.94
10.00
6.66
3.56
0.19
-3.89
-8.79
-14.31
-19.93
-25.10
-29.47
-33.05
-36.28
-39.84
-44.50
-50.81
-58.91
-68.27
-77.68
-85.32
-89.14
-87.46
-79.54
-65.99
-48.68
-30.21
-13.06
1.08
11.64
19.01
24.03
27.42
29.59
30.66
30.75
30.17
29.40
28.86
28.72
28.72
28.42
27.34
25.35
22.62
19.60
16.73
14.13
11.56
8.49
4.40
-0.94
-7.32
-14.11
-20.58
-26.19
-30.87
-35.04
-39.47
-44.89
-51.69
-59.71
-68.32
-76.72
-84.39
-91.32
-98.15
-105.85
-115.34
-127.00
-140.38
-154.08
-166.03
-173.64
-174.27
-165.51
-145.77
-114.76
-73.95
-26.53
23.15
70.61
112.42
146.79
173.44
192.87
205.44
211.03
209.39
200.95
187.46
172.02
158.27
149.26
146.49
149.54
156.32
163.79
168.72
168.15
159.68
141.62
113.41
76.25
33.70
-8.32
-42.61
-62.62
-64.67
-49.53
-22.41
8.60
35.13
50.88
52.84
41.15
17.85
-14.41
-53.30
-96.76
-142.46
-187.21
-226.73
-256.19
-271.31
-269.62
-251.26
-218.93
-177.08
-130.62
-83.82
-39.69
-0.06
34.05
61.99
83.34
98.03
106.59
110.12
110.22
108.58
106.63
105.18
104.31
103.37
101.44
97.74
92.14
85.11
77.58
70.35
63.76
57.49
50.73
42.68
32.95
21.75
9.87
-1.69
-12.13
-21.06
-28.58
-35.14
-41.39
-48.01
-55.62
-64.61
-74.92
-85.76
-95.54
-102.20
-103.72
-98.84
-87.62
-71.43
-52.50
-33.26
-15.54
-0.28
12.41
22.85
31.41
38.26
43.37
46.76
48.64
49.50
49.97
50.57
51.53
52.71
53.65
53.83
52.83
50.52
47.05
42.75
37.98
33.03
28.05
23.15
18.32
13.59
8.93
4.30
-0.33
-4.99
-9.63
-14.15
-18.45
-22.57
-26.69
-31.22
-36.66
-43.51
-52.16
-62.63
-74.31
-85.83
-95.17
-100.02
-98.51
-89.86
-74.84
-55.58
-34.86
-15.29
1.46
14.86
25.32
33.58
40.28
45.72
49.91
52.81
54.51
55.27
55.42
55.21
54.70
53.87
52.61
50.94
48.93
46.72
44.39
41.87
39.01
35.60
31.58
27.08
22.39
17.80
13.44
9.17
4.74
-0.14
-5.56
-11.41
-17.41
-23.27
-28.83
-34.13
-39.42
-45.19
-51.98
-60.24
-69.96
-80.40
-89.97
-96.41
-97.50
-91.77
-79.19
-61.25
-40.51
-19.82
-1.33
13.84
25.68
34.80
41.93
47.52
51.68
54.34
55.54
55.52
54.74
53.67
52.64
51.70
50.75
49.57
48.04
46.08
43.69
40.84
37.46
33.47
28.86
23.78
18.49
13.23
8.16
3.26
-1.63
-6.73
-12.12
-17.73
-23.32
-28.63
-33.48
-37.91
-42.20
-46.88
-52.61
-59.98
-69.25
-80.04
-91.11
-100.44
-105.72
-104.99
-97.37
-83.45
-65.12
-44.97
-25.43
-8.21
5.97
17.10
25.57
31.70
35.70
37.72
37.97
36.82
34.78
32.33
29.79
27.28
24.65
21.67
18.04
13.62
8.37
2.32
-4.46
-12.05
-20.70
-30.81
-42.85
-57.05
-73.14
-90.16
-106.23
-118.68
-124.49
-121.23
-107.99
-85.93
-58.36
-29.96
-5.81
9.62
13.20
3.52
-18.86
-51.28
-88.99
-125.50
-153.69
-167.47
-163.48
-142.03
-106.89
-63.91
-19.14
22.58
58.16
86.18
106.33
119.11
125.80
128.53
130.15
133.51
140.51
151.20
163.79
175.44
183.82
188.36
190.72
193.95
200.71
211.38
223.18
230.62
227.31
208.33
171.97
120.58
60.10
-1.30
-55.05
-94.00
-113.88
-113.98
-97.12
-68.77
-35.62
-3.85
22.30
41.18
53.58
61.66
67.61
72.48
75.84
76.31
72.89
66.26
59.18
55.53
58.37
68.20
82.59
97.19
107.71
111.41
107.58
96.86
80.24
58.70
33.58
7.33
-16.09
-31.89
-36.06
-27.10
-6.83
19.95
46.93
68.21
79.84
80.55
71.80
56.89
39.80
23.80
10.26
-1.74
-14.80
-31.80
-54.41
-81.93
-111.36
-138.03
-156.86
-163.55
-155.67
-133.37
-99.54
-59.51
-19.92
12.86
34.48
43.77
42.91
36.52
30.09
28.43
34.48
48.82
69.60
93.05
114.65
130.70
139.76
143.08
143.51
143.77
144.71
144.74
140.78
129.84
110.32
82.29
46.81
5.26
-40.78
-88.95
-135.57
-175.89
-205.46
-222.05
-226.83
-224.33
-220.51
-220.16
-224.82
-232.14
-236.92
-233.35
-217.18
-187.39
-146.77
-101.30
-58.64
-26.25
-9.27
-9.25
-23.84
-47.73
-74.35
-97.77
-114.06
-121.74
-121.33
-114.52
-103.47
-90.45
-77.67
-67.15
-60.30
-57.53
-58.07
-60.17
-61.67
-60.73
-56.40
-48.77
-38.84
-28.03
-17.65
-8.56
-0.92
5.69
11.95
18.40
25.18
31.88
37.73
41.92
43.99
44.09
42.93
41.49
40.60
40.54
40.88
40.64
38.73
34.37
27.46
18.55
8.72
-0.91
-9.49
-16.57
-22.16
-26.39
-29.48
-31.47
-32.40
-32.32
-31.46
-30.20
-29.04
-28.38
-28.38
-28.86
-29.29
-28.89
-26.79
-22.35
-15.30
-5.84
5.37
17.45
29.51
40.78
50.71
58.94
65.21
69.37
71.36
71.27
69.44
66.40
62.74
58.99
55.42
52.03
48.61
44.90
40.77
36.25
31.54
26.89
22.51
18.52
14.93
11.75
8.92
6.38
4.03
1.72
-0.66
-3.16
-5.68
-8.04
-10.07
-11.67
-12.91
-14.00
-15.25
-17.03
-19.55
-22.78
-26.31
-29.41
-31.15
-30.69
-27.55
-21.89
-14.38
-6.08
1.99
9.18
15.34
20.69
25.57
30.21
34.51
38.23
41.09
43.01
44.10
44.65
45.04
45.70
47.14
49.85
54.03
59.15
63.78
65.74
62.91
54.24
40.30
23.24
5.73
-10.22
-24.06
-36.50
-48.38
-59.58
-68.52
-73.03
-71.67
-64.99
-55.58
-47.17
-43.25
-46.40
-58.56
-81.54
-116.97
-165.06
-222.99
-284.08
-338.97
-378.55
-397.33
-395.34
-377.52
-350.96
-321.77
-293.11
-265.32
-237.48
-209.11
-180.90
-154.22
-130.13
-108.65
-88.91
-69.73
-50.45
-31.23
-12.85
3.80
18.35
31.18
43.30
55.78
69.14
82.74
94.88
103.42
106.97
105.85
102.43
100.17
102.05
108.96
119.17
129.08
135.01
134.75
128.27
117.27
104.29
91.83
82.12
77.03
77.86
84.83
96.64
110.52
123.38
133.14
139.80
145.32
152.46
163.30
178.47
197.18
218.12
240.06
262.02
282.85
300.90
314.17
320.94
320.51
313.48
301.34
285.65
267.35
246.78
224.00
199.50
174.47
150.54
129.28
111.69
97.86
87.13
78.38
70.35
62.00
52.67
42.20
30.87
19.37
8.45
-1.48
-10.60
-19.90
-30.80
-44.69
-62.28
-83.25
-106.18
-128.81
-148.65
-163.53
-172.30
-175.32
-174.68
-173.82
-176.36
-184.45
-197.47
-212.01
-223.26
-227.44
-223.74
-214.60
-204.27
-196.30
-191.71
-188.68
-183.89
-174.31
-158.53
-136.95
-111.10
-82.80
-53.63
-24.92
2.21
26.92
48.88
68.30
85.91
102.61
119.04
135.25
150.52
163.62
173.22
178.52
179.67
177.77
174.34
170.35
165.51
157.97
144.96
123.75
92.94
53.14
7.12
-40.83
-85.99
-124.52
-154.49
-176.20
-191.66
-203.36
-213.06
-221.00
-226.13
-226.89
-222.21
-212.04
-197.18
-178.74
-157.59
-134.22
-108.98
-82.37
-55.28
-28.82
-4.01
18.51
38.56
56.41
72.47
87.09
100.37
112.04
121.67
128.82
133.39
135.81
136.96
137.93
139.62
142.32
145.63
148.70
150.55
150.58
148.70
145.33
141.14
136.79
132.74
129.10
125.65
121.89
117.12
110.64
102.00
91.15
78.48
64.63
50.17
35.46
20.52
5.37
-9.71
-23.89
-35.93
-44.44
-48.28
-46.90
-40.32
-29.19
-14.58
1.95
18.42
32.64
42.53
46.67
44.55
36.76
24.75
10.48
-3.93
-16.65
-26.38
-32.65
-35.82
-37.03
-37.64
-38.76
-40.80
-43.45
-45.95
-47.69
-48.57
-49.00
-49.55
-50.50
-51.68
-52.50
-52.50
-51.60
-50.33
-49.66
-50.59
-53.82
-59.48
-67.11
-75.79
-84.27
-91.29
-95.81
-97.27
-95.60
-91.20
-84.79
-77.19
-69.13
-61.16
-53.57
-46.40
-39.39
-32.10
-23.95
-14.50
-3.59
8.43
20.74
32.21
41.58
47.62
49.24
45.71
36.90
23.49
7.03
-10.44
-26.96
-41.26
-52.98
-62.56
-70.58
-77.27
-82.23
-84.73
-84.13
-80.39
-74.07
-66.13
-57.58
-49.28
-41.92
-36.08
-32.09
-29.95
-29.13
-28.64
-27.18
-23.62
-17.43
-8.73
1.77
13.09
24.31
34.65
43.45
50.09
54.02
54.93
52.95
48.75
43.45
38.38
34.63
32.89
33.26
35.35
38.47
41.82
44.68
46.55
47.16
46.46
44.63
41.89
38.42
34.37
29.89
25.16
20.46
16.07
12.14
8.64
5.44
2.37
-0.64
-3.57
-6.52
-9.74
-13.68
-18.67
-24.57
-30.55
-35.22
-37.08
-35.14
-29.27
-20.16
-8.99
3.09
15.29
27.16
38.40
48.73
57.72
64.89
69.90
72.62
73.24
72.19
70.07
67.58
65.43
64.23
64.35
65.56
66.81
66.13
61.00
49.18
29.64
3.32
-26.80
-56.53
-81.65
-99.23
-108.24
-109.38
-104.33
-94.91
-82.56
-68.44
-53.66
-39.60
-27.94
-20.36
-18.22
-22.31
-32.84
-49.42
-71.04
-95.95
-121.57
-144.66
-161.84
-170.37
-168.91
-157.88
-139.32
-116.18
-91.50
-67.75
-46.54
-28.65
-14.33
-3.53
4.08
9.02
12.09
14.25
16.48
19.52
23.74
29.08
35.15
41.42
47.41
52.79
57.32
60.84
63.13
63.93
63.05
60.51
56.58
51.88
47.15
43.03
39.87
37.55
35.50
32.93
29.09
23.61
16.66
8.90
1.26
-5.52
-11.17
-16.05
-21.02
-27.12
-35.16
-45.35
-57.08
-68.80
-78.30
-83.11
-81.27
-71.94
-55.87
-35.24
-13.01
7.99
25.89
40.09
50.96
59.29
65.70
70.49
73.73
75.58
76.44
76.92
77.52
78.42
79.42
80.09
80.05
79.17
77.65
75.81
73.87
71.80
69.26
65.87
61.37
55.79
49.46
42.94
36.71
31.07
25.99
21.20
16.33
11.13
5.62
0.06
-5.12
-9.55
-13.17
-16.34
-19.80
-24.48
-31.04
-39.37
-48.23
-55.35
-57.87
-53.30
-40.44
-19.92
5.87
33.65
60.26
83.65
103.16
119.35
133.26
145.82
157.46
167.93
176.36
181.38
181.31
174.60
160.35
138.88
111.87
82.10
52.66
26.13
3.99
-13.55
-27.22
-38.13
-47.35
-55.70
-63.68
-71.46
-78.95
-85.72
-91.23
-95.04
-97.08
-97.69
-97.57
-97.35
-97.38
-97.54
-97.40
-96.48
-94.56
-91.82
-88.79
-86.23
-84.98
-85.70
-88.60
-93.07
-97.50
-99.40
-96.15
-85.96
-68.65
-45.88
-20.51
4.43
26.72
45.30
59.95
70.71
77.35
79.46
76.85
70.01
60.25
49.31
38.88
30.06
23.33
18.61
15.64
14.13
13.91
14.77
16.40
18.40
20.27
21.49
21.69
20.58
18.19
14.79
10.92
7.21
4.13
1.83
-0.03
-2.11
-5.08
-9.25
-14.29
-19.37
-23.47
-26.06
-27.52
-29.20
-33.09
-41.14
-54.56
-73.33
-95.95
-119.59
-140.55
-154.99
-159.84
-153.62
-137.02
-112.74
-84.69
-56.85
-32.17
-12.02
3.67
15.71
24.96
31.92
36.80
39.82
41.46
42.45
43.40
44.56
45.67
46.24
45.84
44.41
42.23
39.79
37.44
35.21
32.82
29.85
25.96
21.16
15.81
10.62
6.43
3.88
3.21
4.01
5.43
6.40
6.09
4.24
1.17
-2.41
-5.82
-8.66
-11.04
-13.45
-16.73
-21.89
-29.92
-41.43
-56.30
-73.30
-90.11
-103.81
-111.79
-112.64
-106.60
-95.37
-81.26
-66.23
-51.29
-36.45
-21.23
-5.34
11.07
27.43
43.11
57.66
70.88
82.63
92.62
100.41
105.55
107.86
107.58
105.35
102.01
98.31
94.84
91.84
89.32
87.09
84.90
82.61
80.38
78.75
78.42
79.91
83.27
87.79
92.25
95.24
95.58
92.66
86.51
77.66
66.95
55.25
43.29
31.55
20.27
9.47
-0.84
-10.50
-19.17
-26.32
-31.42
-34.09
-34.18
-31.74
-27.00
-20.39
-12.47
-3.90
4.70
12.82
20.14
26.41
31.28
34.35
35.30
34.15
31.39
27.95
24.78
22.46
20.87
19.16
16.18
10.92
2.87
-7.85
-20.74
-35.17
-50.64
-66.91
-83.92
-101.62
-119.79
-138.01
-155.55
-171.57
-185.33
-196.55
-205.58
-213.45
-221.54
-231.11
-242.72
-255.98
-269.58
-281.63
-289.94
-292.35
-286.85
-271.98
-247.25
-213.47
-172.67
-127.40
-79.82
-31.09
18.39
68.07
116.32
160.29
197.10
225.53
247.13
265.79
285.84
309.50
335.38
358.62
372.84
372.38
354.20
318.64
269.36
212.72
156.73
109.35
76.36
59.60
56.20
59.83
63.30
61.43
52.63
38.50
21.88
4.84
-12.20
-29.72
-47.63
-64.27
-76.50
-81.20
-76.85
-64.39
-46.93
-28.39
-11.95
1.05
11.04
19.44
27.41
35.06
41.33
44.65
43.91
39.12
31.47
22.75
14.56
7.82
2.68
-1.00
-3.29
-4.03
-2.99
-0.21
3.72
7.77
10.69
11.50
9.78
5.74
0.14
-6.00
-11.63
-15.92
-18.40
-19.05
-18.34
-17.06
-16.26
-17.01
-20.18
-26.26
-35.30
-46.74
-59.65
-72.75
-84.75
-94.62
-101.89
-106.85
-110.54
-114.69
-121.54
-133.19
-150.84
-173.91
-199.59
-223.13
-239.19
-243.57
-234.68
-214.14
-186.09
-155.67
-127.40
-104.12
-86.77
-74.80
-66.69
-60.47
-54.06
-45.75
-34.55
-20.71
-5.75
7.86
17.36
20.66
17.18
8.26
-2.99
-12.56
-16.82
-13.58
-2.86
13.49
32.67
52.10
70.04
85.60
98.31
107.66
113.10
114.35
111.63
105.57
96.83
85.78
72.66
58.19
44.00
32.72
27.10
28.85
37.66
51.08
65.39
76.87
82.92
82.15
73.94
57.56
31.93
-3.96
-50.03
-104.25
-162.67
-220.37
-273.07
-318.37
-356.19
-387.76
-414.07
-434.50
-446.62
-447.23
-434.27
-408.16
-371.96
-329.97
-285.73
-240.66
-194.20
-145.16
-93.39
-40.68
10.04
56.20
97.07
133.92
168.97
203.81
238.42
271.36
300.73
324.99
343.01
353.41
354.07
342.70
318.36
283.10
242.47
204.23
175.59
160.45
158.10
163.96
171.89
176.87
176.55
171.23
162.58
152.24
140.96
128.70
115.31
101.16
87.13
74.22
62.90
52.73
42.65
31.51
18.77
4.87
-8.89
-20.94
-30.00
-35.63
-38.29
-39.16
-39.55
-40.59
-42.81
-46.11
-49.95
-53.59
-56.44
-58.28
-59.28
-59.98
-61.05
-63.17
-66.86
-72.39
-79.74
-88.40
-97.30
-104.84
-109.10
-108.36
-101.69
-89.31
-72.64
-53.81
-35.00
-17.82
-2.94
9.68
20.51
29.88
37.91
44.41
49.19
52.29
54.07
55.12
56.01
57.04
58.14
58.95
59.11
58.42
57.01
55.19
53.23
51.15
48.73
45.59
41.59
36.88
31.97
27.45
23.65
20.52
17.70
14.68
11.19
7.26
3.24
-0.56
-4.02
-7.41
-11.30
-16.37
-23.18
-32.06
-42.93
-55.19
-67.59
-78.30
-85.18
-86.38
-81.00
-69.56
-53.89
-36.52
-19.73
-4.91
7.68
18.54
28.23
36.99
44.56
50.56
54.77
57.38
58.89
59.80
60.39
60.65
60.38
59.51
58.17
56.74
55.58
54.84
54.32
53.54
51.92
49.04
44.88
39.81
34.42
29.28
24.68
20.57
16.65
12.57
8.07
3.15
-1.99
-7.10
-12.00
-16.78
-21.70
-27.18
-33.63
-41.37
-50.46
-60.58
-70.92
-80.08
-86.32
-87.86
-83.58
-73.43
-58.60
-41.20
-23.57
-7.57
5.83
16.56
24.99
31.59
36.64
40.24
42.56
43.91
44.76
45.54
46.46
47.44
48.22
48.52
48.22
47.35
46.12
44.71
43.20
41.46
39.24
36.30
32.52
28.06
23.33
18.84
14.95
11.64
8.48
4.80
0.08
-5.80
-12.47
-19.17
-25.18
-30.11
-34.08
-37.69
-41.72
-46.97
-53.95
-62.74
-72.78
-82.79
-90.88
-94.89
-93.08
-84.75
-70.68
-52.89
-34.05
-16.58
-1.95
9.56
18.54
25.88
32.23
37.83
42.57
46.25
48.83
50.43
51.28
51.57
51.42
50.86
49.91
48.66
47.23
45.71
44.17
42.54
40.67
38.36
35.42
31.80
27.62
23.14
18.63
14.28
10.07
5.75
1.07
-4.07
-9.54
-14.94
-19.91
-24.28
-28.31
-32.60
-37.95
-45.00
-53.99
-64.52
-75.46
-85.04
-91.14
-91.92
-86.35
-74.73
-58.62
-40.48
-22.81
-7.38
5.16
15.14
23.40
30.65
37.12
42.61
46.75
49.33
50.53
50.76
50.54
50.20
49.87
49.46
48.83
47.94
46.84
45.64
44.36
42.81
40.62
37.43
33.15
28.04
22.72
17.87
13.88
10.62
7.50
3.76
-1.12
-7.11
-13.69
-20.09
-25.74
-30.49
-34.71
-39.10
-44.48
-51.53
-60.50
-71.03
-81.90
-91.20
-96.61
-96.16
-88.94
-75.51
-57.80
-38.48
-20.02
-3.99
9.16
19.84
28.75
36.44
43.11
48.79
53.57
57.74
61.73
65.85
70.09
74.07
77.24
79.15
79.72
79.20
78.03
76.49
74.51
71.69
67.49
61.58
53.98
45.07
35.46
25.65
15.97
6.52
-2.71
-11.79
-20.70
-29.34
-37.43
-44.65
-50.70
-55.43
-59.06
-62.22
-65.82
-70.82
-77.94
-87.24
-97.94
-108.30
-116.01
-118.69
-114.66
-103.59
-86.67
-66.33
-45.44
-26.45
-10.71
1.66
11.38
19.38
26.37
32.58
37.97
42.48
46.20
49.35
52.12
54.44
56.00
56.31
55.05
52.30
48.56
44.63
41.26
38.78
36.96
35.16
32.68
29.18
24.84
20.33
16.38
13.45
11.39
9.58
7.17
3.53
-1.48
-7.46
-13.64
-19.36
-24.34
-28.81
-33.37
-38.74
-45.47
-53.85
-63.81
-74.88
-86.11
-95.99
-102.59
-104.03
-99.12
-87.89
-71.79
-53.17
-34.57
-17.82
-3.65
8.24
18.55
27.89
36.39
43.77
49.70
54.04
56.98
58.93
60.27
61.18
61.68
61.66
61.13
60.21
59.14
58.08
56.96
55.44
53.05
49.39
44.43
38.61
32.67
27.35
23.03
19.51
16.10
11.96
6.54
-0.12
-7.38
-14.26
-19.97
-24.21
-27.49
-30.95
-35.97
-43.65
-54.20
-66.61
-78.72
-87.74
-91.18
-87.87
-78.51
-65.62
-52.55
-42.13
-35.53
-31.81
-28.38
-21.85
-9.15
11.66
40.74
76.13
113.99
149.39
177.50
195.05
200.85
195.49
180.09
155.18
120.43
75.66
22.40
-35.00
-89.77
-134.42
-163.28
-174.22
-169.00
-152.22
-129.57
-106.30
-86.38
-72.28
-65.03
-64.47
-69.53
-78.56
-89.99
-102.99
-117.94
-136.47
-160.76
-192.29
-230.61
-272.65
-313.27
-346.71
-368.57
-377.16
-373.75
-361.61
-344.46
-325.10
-304.89
-284.06
-262.50
-240.31
-217.88
-195.58
-173.46
-151.23
-128.62
-105.85
-83.83
-64.07
-48.19
-37.35
-31.88
-31.17
-34.04
-39.10
-45.16
-51.46
-57.66
-63.64
-69.28
-74.34
-78.40
-80.94
-81.41
-79.31
-74.20
-65.84
-54.19
-39.52
-22.41
-3.71
15.79
35.67
56.05
77.70
101.70
128.98
159.98
194.37
231.31
269.61
308.05
345.61
381.57
415.41
446.54
474.13
496.85
513.06
521.16
520.09
509.62
490.44
464.31
434.20
404.31
379.45
363.74
358.78
362.30
368.25
368.80
357.29
330.96
291.69
244.54
194.71
145.12
95.73
45.17
-6.75
-57.22
-100.71
-131.06
-144.33
-140.61
-124.24
-102.01
-80.56
-64.23
-54.22
-49.25
-47.14
-46.14
-45.34
-44.28
-42.32
-38.61
-32.72
-25.65
-20.10
-19.76
-27.56
-43.72
-64.96
-85.28
-98.14
-98.96
-86.77
-64.27
-36.50
-8.95
14.14
30.57
40.11
43.90
43.71
41.26
37.79
34.02
30.34
26.95
24.02
21.57
19.36
16.86
13.39
8.54
2.52
-3.74
-8.89
-11.76
-11.86
-9.73
-6.64
-4.04
-2.96
-3.63
-5.57
-7.90
-9.87
-11.15
-11.98
-13.00
-14.97
-18.45
-23.71
-30.71
-39.12
-48.37
-57.55
-65.38
-70.33
-71.02
-66.64
-57.37
-44.47
-29.83
-15.42
-2.65
7.92
16.44
23.40
29.18
33.85
37.20
39.03
39.36
38.52
37.06
35.57
34.41
33.58
32.84
31.81
30.23
28.13
25.75
23.46
21.45
19.71
17.96
15.81
12.96
9.28
4.84
-0.13
-5.32
-10.43
-15.24
-19.60
-23.58
-27.44
-31.62
-36.65
-43.00
-50.83
-59.86
-69.29
-77.79
-83.72
-85.46
-81.90
-72.91
-59.49
-43.60
-27.55
-13.26
-1.75
7.00
13.69
19.18
24.02
28.25
31.62
33.88
34.99
35.23
35.01
34.67
34.40
34.17
33.79
33.05
31.82
30.07
27.90
25.42
22.71
19.79
16.62
13.12
9.27
5.10
0.71
-3.79
-8.27
-12.63
-16.77
-20.64
-24.22
-27.69
-31.37
-35.77
-41.42
-48.57
-56.96
-65.57
-72.77
-76.65
-75.64
-69.13
-57.78
-43.33
-28.04
-13.99
-2.41
6.42
12.98
17.99
21.97
25.08
27.22
28.30
28.42
27.91
27.24
26.81
26.80
27.15
27.56
27.71
27.28
26.15
24.31
21.96
19.31
16.55
13.78
10.92
7.85
4.40
0.55
-3.62
-7.92
-12.17
-16.25
-20.13
-23.87
-27.60
-31.45
-35.61
-40.34
-45.93
-52.62
-60.37
-68.52
-75.76
-80.20
-80.07
-74.24
-62.92
-47.60
-30.73
-14.80
-1.56
8.32
15.15
19.76
22.95
25.19
26.62
27.35
27.55
27.57
27.72
28.17
28.78
29.27
29.35
28.86
27.87
26.52
24.91
23.04
20.77
17.99
14.71
11.09
7.38
3.81
0.45
-2.82
-6.20
-9.90
-14.03
-18.49
-23.05
-27.40
-31.30
-34.62
-37.57
-40.58
-44.33
-49.46
-56.30
-64.47
-72.73
-79.06
-81.22
-77.53
-67.53
-52.33
-34.33
-16.41
-1.01
10.62
18.49
23.55
26.96
29.55
31.61
33.07
33.80
33.93
33.77
33.67
33.81
34.09
34.20
33.82
32.74
31.05
28.97
26.73
24.40
21.88
18.89
15.19
10.74
5.80
0.83
-3.71
-7.57
-10.82
-13.80
-16.87
-20.19
-23.59
-26.74
-29.36
-31.52
-33.74
-36.78
-41.37
-47.95
-56.36
-65.69
-74.36
-80.33
-81.58
-76.74
-65.69
-49.71
-31.24
-13.04
2.65
14.75
23.33
29.25
33.45
36.60
38.89
40.38
41.14
41.44
41.62
41.87
42.16
42.24
41.85
40.87
39.38
37.61
35.73
33.77
31.56
28.82
25.27
20.77
15.29
9.03
2.26
-4.59
-11.14
-17.14
-22.44
-27.07
-31.11
-34.62
-37.59
-39.98
-41.85
-43.50
-45.51
-48.63
-53.52
-60.38
-68.67
-76.96
-83.16
-84.99
-80.74
-69.89
-53.39
-33.52
-13.17
5.04
19.48
29.76
36.52
40.81
43.53
45.06
45.35
44.21
41.62
37.95
33.80
29.82
26.47
23.89
21.92
20.27
18.63
16.83
14.82
12.64
10.37
8.05
5.70
3.29
0.84
-1.68
-4.24
-6.93
-9.88
-13.23
-17.02
-21.13
-25.32
-29.35
-33.24
-37.35
-42.39
-49.17
-58.29
-69.75
-82.73
-95.55
-105.88
-111.39
-110.39
-102.52
-88.97
-72.09
-54.65
-38.92
-26.05
-16.12
-8.56
-2.95
0.54
1.07
-2.31
-9.98
-21.03
-33.08
-42.85
-47.16
-44.17
-34.25
-19.97
-5.25
6.04
11.43
10.45
4.43
-4.36
-13.78
-22.48
-29.97
-36.29
-41.59
-46.06
-50.06
-54.32
-59.76
-66.97
-75.65
-84.43
-91.29
-94.54
-93.78
-90.31
-86.67
-85.43
-87.92
-93.39
-99.16
-101.52
-96.99
-83.56
-61.29
-32.34
-0.34
30.73
57.71
79.08
95.15
107.58
118.30
128.69
139.00
148.54
156.19
161.00
162.46
160.43
155.02
146.39
134.89
121.19
106.44
92.18
80.17
71.92
68.35
69.44
74.02
79.84
84.04
83.92
77.87
66.05
50.30
33.52
18.42
6.59
-1.92
-8.22
-13.81
-19.74
-26.13
-32.25
-36.89
-38.89
-37.59
-33.01
-25.89
-17.41
-8.91
-1.37
4.93
10.39
15.78
21.81
28.75
36.33
44.12
51.86
59.64
67.70
76.07
84.16
90.77
94.37
93.69
88.16
78.14
64.80
49.81
34.99
21.81
11.07
2.69
-4.26
-11.22
-19.66
-30.60
-44.40
-60.91
-79.88
-101.24
-124.97
-150.53
-176.12
-198.40
-212.98
-215.76
-204.60
-180.40
-147.16
-110.74
-76.93
-49.69
-30.33
-17.90
-10.25
-5.21
-1.21
2.72
7.29
13.16
20.87
30.44
41.16
51.51
59.59
63.71
62.87
56.90
46.49
32.94
18.05
3.92
-7.27
-13.71
-14.43
-9.62
-0.56
10.80
22.37
32.34
39.31
42.28
40.94
36.11
30.19
26.79
29.42
39.72
56.29
74.89
90.30
98.73
99.46
94.77
88.34
83.06
79.75
77.36
74.24
69.59
63.99
58.90
55.67
54.79
55.63
56.87
57.10
55.35
51.36
45.60
39.02
32.65
27.06
22.21
17.42
11.78
4.67
-3.96
-13.59
-23.56
-33.51
-43.55
-53.92
-64.37
-73.75
-80.01
-80.86
-74.78
-61.77
-43.54
-22.96
-3.04
14.07
27.56
37.83
45.87
52.58
58.27
62.72
65.53
66.54
66.01
64.64
63.20
62.26
61.98
62.14
62.28
61.96
60.90
59.08
56.72
54.10
51.52
49.08
46.72
44.24
41.36
37.76
33.07
26.92
19.07
9.77
-0.01
-8.46
-13.30
-12.56
-5.37
7.51
23.77
40.28
54.08
63.17
66.88
65.71
60.82
53.57
45.10
36.15
27.06
17.75
7.95
-2.69
-14.42
-27.27
-40.97
-55.08
-69.01
-82.14
-93.94
-104.11
-112.61
-119.72
-125.89
-131.53
-136.85
-141.80
-146.09
-149.43
-151.79
-153.52
-155.48
-158.87
-164.82
-173.75
-184.91
-196.20
-204.68
-207.57
-203.17
-191.43
-173.67
-151.79
-127.41
-101.49
-74.51
-47.03
-20.09
4.95
26.91
45.34
60.53
73.07
83.31
90.94
95.17
95.19
90.74
82.43
71.80
60.97
52.16
46.95
45.68
47.18
49.01
48.32
42.89
31.97
16.41
-1.93
-21.09
-39.74
-57.40
-74.16
-90.22
-105.61
-119.98
-132.53
-141.95
-146.47
-144.15
-133.54
-114.30
-87.74
-56.58
-24.18
6.50
33.65
56.86
76.69
93.89
108.88
121.42
130.90
136.72
138.69
137.28
133.40
128.14
122.36
116.45
110.39
103.96
97.02
89.70
82.36
75.40
69.06
63.18
57.35
51.05
43.91
36.03
27.92
20.44
14.41
10.31
7.98
6.64
5.19
2.53
-2.15
-9.21
-18.59
-29.78
-41.62
-52.34
-59.64
-61.29
-55.89
-43.58
-26.18
-6.61
12.16
28.09
40.58
50.23
58.09
64.87
70.69
75.14
77.73
78.28
77.03
74.41
70.89
66.74
62.10
57.09
51.89
46.75
41.80
36.97
31.94
26.40
20.31
13.99
8.11
3.32
-0.07
-2.33
-4.18
-6.48
-9.83
-14.35
-19.66
-25.16
-30.32
-34.92
-39.05
-43.10
-47.52
-52.84
-59.49
-67.68
-77.05
-86.39
-93.60
-96.21
-92.12
-80.60
-62.65
-40.87
-18.43
1.92
18.71
31.88
42.18
50.45
57.03
61.75
64.25
64.41
62.64
59.77
56.70
54.05
51.98
50.23
48.40
46.14
43.28
39.86
35.92
31.45
26.35
20.55
14.13
7.35
0.60
-5.72
-11.34
-16.23
-20.54
-24.49
-28.32
-32.21
-36.30
-40.77
-45.79
-51.57
-58.31
-66.20
-75.28
-85.25
-95.22
-103.58
-108.25
-107.24
-99.49
-85.44
-67.07
-47.28
-28.87
-13.66
-2.10
6.50
13.27
19.09
24.36
29.04
33.05
36.49
39.64
42.73
45.74
48.31
49.92
50.16
49.04
47.00
44.73
42.80
41.36
40.01
38.03
34.68
29.69
23.32
16.35
9.71
4.07
-0.42
-4.18
-7.96
-12.46
-18.01
-24.43
-31.11
-37.27
-42.35
-46.23
-49.32
-52.43
-56.56
-62.61
-71.08
-81.73
-93.39
-103.89
-110.46
-110.46
-102.38
-86.47
-64.85
-40.83
-17.83
1.70
16.86
28.11
36.63
43.58
49.64
54.90
59.14
62.19
64.11
65.18
65.74
66.03
66.04
65.59
64.44
62.57
60.16
57.59
55.23
53.22
51.38
49.26
46.37
42.38
37.30
31.53
25.68
20.36
15.99
12.66
10.09
7.73
4.90
1.05
-4.12
-10.44
-17.36
-24.07
-29.83
-34.23
-37.36
-39.84
-42.56
-46.50
-52.43
-60.78
-71.35
-83.12
-94.13
-101.78
-103.45
-97.56
-84.18
-65.33
-44.25
-24.29
-7.83
4.36
12.89
19.02
23.89
28.04
31.45
33.91
35.40
36.23
36.88
37.75
38.88
39.94
40.39
39.84
38.28
36.15
34.09
32.62
31.84
31.37
30.52
28.64
25.38
20.90
15.74
10.61
6.13
2.58
-0.14
-2.54
-5.28
-8.95
-13.75
-19.40
-25.24
-30.45
-34.46
-37.19
-39.17
-41.25
-44.44
-49.51
-56.81
-66.06
-76.22
-85.47
-91.50
-92.02
-85.55
-72.14
-53.47
-32.45
-12.27
4.63
17.18
25.65
31.07
34.51
36.65
37.71
37.74
37.00
35.99
35.31
35.33
35.97
36.76
36.98
36.15
34.16
31.45
28.66
26.39
24.77
23.41
21.50
18.23
13.13
6.35
-1.39
-9.09
-15.94
-21.64
-26.60
-31.71
-37.93
-45.88
-55.51
-66.18
-76.90
-86.80
-95.42
-102.93
-110.04
-117.85
-127.71
-141.02
-158.85
-181.33
-207.08
-232.99
-254.73
-268.01
-269.95
-260.11
-240.40
-214.00
-183.96
-152.15
-119.19
-85.13
-50.36
-15.98
16.49
45.93
72.14
95.83
118.10
139.56
160.01
178.58
194.27
206.50
215.31
221.10
224.07
223.90
219.69
210.49
195.74
175.84
152.23
127.05
102.59
80.73
62.52
48.11
36.93
27.89
19.80
11.61
2.75
-6.80
-16.47
-25.38
-32.65
-37.77
-40.85
-42.63
-44.32
-47.29
-52.53
-60.20
-69.25
-77.44
-81.89
-79.95
-70.33
-53.65
-32.38
-9.94
10.45
26.69
38.14
45.34
49.31
51.02
51.20
50.44
49.34
48.55
48.60
49.57
51.10
52.43
52.76
51.61
49.06
45.71
42.42
39.88
38.35
37.45
36.34
34.03
29.80
23.49
15.58
6.98
-1.35
-8.77
-15.22
-21.21
-27.55
-35.07
-44.25
-54.95
-66.24
-76.43
-83.34
-84.92
-79.85
-68.06
-50.87
-30.59
-9.78
9.47
25.99
39.45
49.99
57.82
63.00
65.56
65.76
64.21
61.88
59.69
58.19
57.34
56.64
55.39
53.13
49.85
45.93
41.84
37.75
33.36
28.07
21.25
12.73
3.00
-6.96
-16.06
-23.55
-29.36
-34.13
-38.92
-44.93
-53.10
-63.76
-76.32
-89.21
-99.98
-105.89
-104.69
-95.48
-79.12
-57.98
-35.17
-13.54
5.12
20.23
32.14
41.47
48.68
53.93
57.23
58.77
58.98
58.49
57.84
57.26
56.54
55.25
52.96
49.59
45.52
41.36
37.67
34.54
31.51
27.80
22.63
15.75
7.52
-1.19
-9.45
-16.64
-22.67
-28.01
-33.51
-40.08
-48.45
-58.77
-70.36
-81.53
-89.79
-92.56
-87.96
-75.61
-56.90
-34.58
-11.66
9.58
28.22
44.61
59.69
74.13
87.88
100.17
110.05
116.93
120.91
122.69
123.14
122.82
121.76
119.55
115.67
109.87
102.41
93.97
85.33
77.02
69.04
60.90
51.91
41.54
29.78
17.16
4.62
-6.95
-17.03
-25.69
-33.57
-41.62
-50.77
-61.69
-74.54
-88.85
-103.38
-116.24
-125.12
-128.00
-123.74
-112.65
-96.48
-77.86
-59.41
-42.97
-29.24
-17.95
-8.38
0.01
7.36
13.49
18.13
21.26
23.16
24.25
24.87
25.10
24.79
23.70
21.81
19.33
16.74
14.50
12.78
11.35
9.61
6.97
3.12
-1.69
-6.73
-11.21
-14.60
-17.04
-19.30
-22.49
-27.74
-35.65
-46.06
-57.82
-68.87
-76.74
-79.12
-74.66
-63.46
-47.10
-28.16
-9.33
7.36
21.06
31.88
40.48
47.43
52.89
56.66
58.53
58.54
57.17
55.13
53.04
51.16
49.32
47.10
44.19
40.61
36.74
33.04
29.72
26.52
22.78
17.73
10.96
2.65
-6.44
-15.30
-23.09
-29.52
-34.94
-40.23
-46.54
-54.89
-65.75
-78.68
-92.17
-103.75
-110.58
-110.33
-102.03
-86.50
-66.12
-43.99
-22.86
-4.36
11.23
24.54
36.42
47.38
57.32
65.76
72.20
76.46
78.75
79.56
79.41
78.65
77.34
75.39
72.73
69.46
65.90
62.45
59.43
56.82
54.26
51.07
46.63
40.59
33.18
25.10
17.34
10.77
5.73
1.86
-1.70
-6.00
-11.73
-18.95
-27.11
-35.26
-42.54
-48.50
-53.29
-57.54
-62.19
-68.20
-76.34
-86.96
-99.57
-112.70
-123.86
-130.09
-128.82
-118.87
-101.04
-77.88
-52.92
-29.32
-9.02
7.60
21.26
33.00
43.47
52.75
60.46
66.25
70.06
72.24
73.28
73.63
73.46
72.66
71.02
68.44
65.08
61.33
57.72
54.66
52.27
50.32
48.34
45.78
42.28
37.75
32.39
26.67
21.11
16.17
12.00
8.48
5.10
1.24
-3.67
-9.86
-17.08
-24.64
-31.73
-37.75
-42.59
-46.67
-50.82
-55.98
-62.94
-72.08
-83.27
-95.59
-107.34
-116.10
-119.33
-115.10
-102.94
-84.17
-61.59
-38.54
-17.77
-0.69
12.74
23.45
32.51
40.51
47.45
52.98
56.85
59.18
60.49
61.40
62.43
63.66
64.81
65.37
64.90
63.30
60.83
58.02
55.33
52.95
50.65
47.91
44.18
39.19
33.08
26.39
19.84
14.09
9.46
5.81
2.61
-0.84
-5.15
-10.60
-16.97
-23.71
-30.13
-35.72
-40.35
-44.32
-48.25
-52.81
-58.60
-66.06
-75.37
-86.31
-97.97
-108.58
-115.66
-116.64
-109.83
-95.17
-74.52
-51.05
-28.19
-8.45
7.17
19.11
28.50
36.33
43.04
48.53
52.54
55.03
56.34
57.00
57.45
57.83
57.94
57.45
56.14
54.10
51.65
49.19
46.96
44.85
42.45
39.26
34.94
29.54
23.50
17.50
12.23
7.99
4.66
1.63
-1.87
-6.43
-12.20
-18.73
-25.24
-30.91
-35.33
-38.65
-41.55
-45.03
-50.03
-57.20
-66.61
-77.40
-87.80
-95.26
-97.16
-91.68
-78.65
-59.82
-38.30
-17.54
-0.05
13.19
22.67
29.62
35.13
39.64
42.99
44.83
45.17
44.49
43.60
43.18
43.46
44.07
44.28
43.35
40.95
37.29
33.05
28.99
25.58
22.73
19.75
15.75
10.05
2.58
-5.98
-14.52
-21.89
-27.46
-31.35
-34.32
-37.45
-41.77
-47.90
-56.07
-65.96
-76.68
-86.62
-93.61
-95.40
-90.36
-78.30
-60.67
-40.23
-20.09
-2.65
10.98
20.97
28.29
33.89
38.38
41.88
44.37
45.88
46.62
46.88
46.83
46.43
45.45
43.67
41.11
38.02
34.93
32.28
30.16
28.14
25.36
20.98
14.54
6.33
-2.77
-11.60
-19.23
-25.30
-30.19
-34.73
-39.98
-46.90
-55.97
-66.94
-78.52
-88.52
-94.24
-93.34
-84.75
-69.25
-49.21
-27.90
-8.22
8.07
20.62
30.08
37.34
43.01
47.17
49.66
50.49
50.06
49.10
48.32
48.10
48.23
48.08
46.92
44.39
40.65
36.41
32.46
29.30
26.79
24.18
20.48
14.96
7.55
-1.11
-9.87
-17.65
-23.80
-28.39
-32.17
-36.25
-41.78
-49.60
-59.96
-72.28
-84.98
-95.58
-101.26
-99.71
-90.06
-73.39
-52.47
-30.81
-11.43
4.10
15.82
24.80
32.15
38.36
43.20
46.19
47.20
46.79
46.05
46.05
47.29
49.43
51.41
52.02
50.47
46.80
41.83
36.75
32.51
29.36
26.76
23.67
19.12
12.69
4.78
-3.60
-11.33
-17.61
-22.37
-26.18
-30.02
-34.86
-41.50
-50.28
-61.03
-72.88
-84.18
-92.60
-95.71
-91.70
-80.12
-62.29
-40.87
-19.04
0.56
16.50
28.57
37.40
43.71
47.91
50.09
50.38
49.19
47.34
45.78
45.20
45.66
46.56
46.94
45.96
43.34
39.48
35.21
31.28
27.93
24.73
20.76
15.23
7.87
-0.77
-9.59
-17.41
-23.50
-27.91
-31.42
-35.27
-40.75
-48.80
-59.62
-72.45
-85.43
-95.84
-100.71
-97.77
-86.33
-67.69
-44.84
-21.47
-0.71
15.77
27.91
36.74
43.46
48.75
52.53
54.40
54.18
52.34
49.88
47.99
47.37
48.03
49.22
49.85
49.02
46.36
42.17
37.21
32.32
28.06
24.46
21.00
16.95
11.62
4.80
-3.19
-11.59
-19.54
-26.45
-32.22
-37.19
-42.01
-47.37
-53.97
-62.36
-72.89
-85.35
-98.52
-110.07
-116.88
-116.10
-106.21
-87.89
-63.88
-38.09
-14.21
5.49
20.50
31.72
40.55
48.07
54.68
60.18
64.21
66.61
67.54
67.44
66.83
66.08
65.36
64.60
63.63
62.26
60.35
57.83
54.65
50.78
46.24
41.10
35.47
29.47
23.15
16.51
9.47
2.07
-5.57
-13.17
-20.44
-27.17
-33.36
-39.20
-45.05
-51.42
-58.84
-67.92
-79.00
-91.73
-104.67
-115.18
-120.04
-116.50
-103.50
-82.28
-56.14
-29.24
-5.12
14.32
29.09
40.39
49.71
57.94
65.28
71.46
76.25
79.72
82.23
84.19
85.77
86.87
87.16
86.46
84.85
82.76
80.76
79.20
78.01
76.63
74.24
70.14
64.08
56.36
47.59
38.40
29.01
19.14
8.11
-4.77
-19.66
-35.93
-52.26
-67.26
-80.11
-91.06
-101.23
-112.14
-124.91
-139.79
-156.14
-172.78
-188.41
-201.83
-211.98
-218.05
-219.64
-217.07
-211.30
-203.32
-193.22
-179.48
-159.09
-128.86
-87.22
-35.52
21.81
78.61
129.13
169.92
200.52
222.78
239.51
253.08
264.77
274.78
282.80
288.61
292.51
295.48
298.83
303.56
309.41
314.36
315.11
308.56
293.59
272.06
248.15
226.46
209.56
196.91
185.36
171.04
151.59
127.14
100.01
73.44
50.24
31.91
18.31
7.62
-3.54
-19.56
-44.55
-80.38
-124.94
-171.77
-211.62
-235.60
-238.76
-222.51
-194.49
-165.91
-147.58
-146.28
-162.99
-193.68
-231.64
-270.17
-304.11
-330.06
-345.73
-349.38
-340.10
-318.62
-287.94
-253.06
-219.66
-192.18
-172.38
-158.91
-148.22
-136.21
-119.78
-97.79
-71.16
-42.27
-13.92
11.47
32.51
48.89
61.22
70.38
77.14
81.95
84.93
86.12
85.75
84.32
82.60
81.33
81.08
82.04
84.11
87.01
90.44
94.20
98.09
101.80
104.90
106.87
107.29
106.09
103.58
100.39
97.11
93.96
90.64
86.38
80.31
71.86
61.11
48.84
36.39
25.25
16.63
11.05
8.18
7.05
6.35
5.11
3.07
0.88
-0.13
1.46
6.48
14.78
25.14
35.76
44.96
51.82
56.68
61.01
66.75
75.38
86.97
99.70
110.07
113.75
106.59
85.58
49.64
0.41
-57.37
-116.24
-167.58
-204.06
-222.20
-223.53
-213.67
-199.57
-186.27
-175.11
-164.10
-150.24
-132.11
-111.02
-90.31
-73.27
-61.42
-54.03
-48.97
-44.34
-39.41
-34.81
-31.73
-30.94
-32.12
-33.93
-34.70
-33.27
-29.67
-25.17
-21.85
-21.74
-25.85
-33.78
-43.88
-53.91
-62.09
-67.71
-71.33
-74.33
-78.24
-84.14
-92.41
-102.89
-115.02
-127.88
-139.97
-149.04
-152.33
-147.38
-133.02
-110.07
-81.31
-50.47
-20.97
5.19
27.66
47.07
64.12
78.81
90.40
98.06
101.58
101.86
100.68
100.01
101.25
104.79
110.02
115.71
120.59
123.65
124.30
122.31
117.76
110.91
102.22
92.30
81.76
71.16
60.83
50.89
41.35
32.19
23.42
15.06
7.00
-1.00
-9.23
-18.00
-27.53
-38.07
-49.90
-63.23
-77.79
-92.36
-104.63
-111.62
-110.67
-100.61
-82.49
-59.30
-34.98
-12.88
5.23
19.41
30.82
40.77
49.95
58.22
64.97
69.75
72.57
73.99
74.75
75.45
76.32
77.18
77.64
77.37
76.24
74.40
72.12
69.67
67.15
64.46
61.32
57.37
52.24
45.70
37.68
28.45
18.55
8.68
-0.50
-8.58
-15.51
-21.64
-27.54
-33.83
-41.12
-49.87
-60.27
-71.97
-83.72
-93.35
-98.21
-96.00
-85.74
-68.36
-46.55
-23.81
-3.25
13.34
25.75
34.84
41.75
47.19
51.34
54.06
55.34
55.62
55.56
55.80
56.52
57.36
57.58
56.56
54.08
50.54
46.71
43.30
40.62
38.30
35.56
31.53
25.73
18.34
10.14
2.14
-4.85
-10.60
-15.53
-20.54
-26.67
-34.77
-45.15
-57.38
-70.10
-81.18
-88.09
-88.60
-81.61
-67.65
-48.80
-28.10
-8.44
8.22
21.23
31.12
38.84
45.22
50.54
54.64
57.20
58.12
57.69
56.52
55.31
54.54
54.29
54.22
53.76
52.44
50.02
46.71
42.92
39.10
35.48
31.94
28.08
23.42
17.59
10.58
2.68
-5.52
-13.39
-20.50
-26.71
-32.27
-37.63
-43.37
-50.08
-58.32
-68.46
-80.38
-93.11
-104.63
-112.18
-113.02
-105.54
-90.01
-68.68
-45.05
-22.51
-3.30
11.97
23.99
33.93
42.62
50.27
56.69
61.65
65.21
67.68
69.36
70.33
70.42
69.41
67.32
64.48
61.50
58.94
57.05
55.58
53.93
51.41
47.55
42.35
36.20
29.69
23.34
17.35
11.59
5.70
-0.63
-7.52
-14.76
-21.92
-28.50
-34.18
-38.95
-43.21
-47.66
-53.23
-60.74
-70.61
-82.38
-94.49
-104.40
-109.20
-106.53
-95.61
-77.64
-55.46
-32.55
-11.89
4.98
18.01
28.18
36.67
44.21
50.92
56.50
60.69
63.52
65.35
66.64
67.73
68.62
69.04
68.61
67.11
64.70
61.86
59.20
57.13
55.61
54.12
51.93
48.41
43.48
37.60
31.63
26.44
22.54
19.86
17.84
15.64
12.60
8.45
3.48
-1.66
-6.28
-10.04
-13.07
-15.94
-19.41
-24.13
-30.47
-38.52
-48.02
-58.25
-67.93
-75.12
-77.61
-73.66
-62.79
-46.28
-26.78
-7.36
9.62
23.16
33.43
41.08
46.39
48.94
47.96
43.06
34.72
24.29
13.46
3.56
-4.83
-11.87
-18.04
-23.64
-28.56
-32.34
-34.53
-34.98
-34.07
-32.54
-31.23
-30.65
-30.80
-31.09
-30.69
-28.90
-25.52
-21.02
-16.40
-12.79
-11.00
-11.20
-12.87
-15.15
-17.25
-18.81
-20.07
-21.81
-25.00
-30.49
-38.65
-49.05
-60.29
-70.15
-75.96
-75.46
-67.61
-53.07
-34.12
-13.85
4.82
20.11
31.65
40.12
46.60
51.84
56.06
59.08
60.76
61.20
60.86
60.24
59.72
59.30
58.71
57.55
55.59
52.87
49.77
46.78
44.28
42.31
40.47
38.09
34.52
29.44
23.19
16.54
10.49
5.71
2.25
-0.50
-3.53
-7.67
-13.22
-19.80
-26.55
-32.51
-37.10
-40.35
-42.95
-45.96
-50.49
-57.44
-67.17
-79.30
-92.42
-104.18
-111.66
-112.17
-104.21
-88.19
-66.52
-42.80
-20.67
-2.58
10.79
20.25
27.35
33.41
39.09
44.32
48.76
52.16
54.60
56.39
57.84
59.04
59.80
59.75
58.59
56.34
53.36
50.30
47.75
46.00
44.81
43.51
41.30
37.59
32.34
26.04
19.57
13.81
9.28
5.96
3.23
0.24
-3.82
-9.30
-15.97
-23.07
-29.69
-35.14
-39.27
-42.57
-45.94
-50.35
-56.54
-64.84
-75.06
-86.37
-97.22
-105.33
-108.20
-103.85
-91.71
-73.07
-50.83
-28.55
-9.18
5.74
16.36
23.87
29.69
34.75
39.35
43.34
46.50
48.81
50.43
51.55
52.26
52.49
52.10
51.00
49.32
47.35
45.47
43.91
42.59
41.11
38.87
35.35
30.48
24.67
18.77
13.59
9.59
6.59
3.86
0.50
-4.09
-9.89
-16.29
-22.38
-27.46
-31.36
-34.55
-37.90
-42.42
-48.92
-57.75
-68.48
-79.80
-89.54
-95.04
-93.97
-85.17
-69.25
-48.56
-26.52
-6.38
9.72
21.22
28.87
34.04
37.87
40.92
43.16
44.36
44.49
43.84
42.91
42.23
42.01
42.10
42.13
41.69
40.61
38.95
36.89
34.61
32.08
29.14
25.55
21.24
16.37
11.22
6.06
1.00
-4.06
-9.29
-14.80
-20.48
-26.11
-31.42
-36.34
-41.00
-45.80
-51.33
-58.24
-66.99
-77.47
-88.61
-98.33
-103.87
-102.69
-93.52
-77.03
-55.74
-33.21
-12.67
3.93
16.26
25.20
32.00
37.58
42.25
45.91
48.48
50.08
51.11
51.94
52.77
53.47
53.74
53.24
51.91
49.95
47.78
45.79
44.10
42.47
40.35
37.16
32.63
27.01
20.97
15.37
10.80
7.31
4.39
1.19
-3.04
-8.58
-15.13
-21.98
-28.41
-34.00
-38.85
-43.57
-49.08
-56.31
-65.91
-77.88
-91.20
-103.72
-112.51
-114.67
-108.38
-93.74
-72.88
-49.29
-26.60
-7.34
7.58
18.72
27.32
34.54
40.97
46.67
51.46
55.29
58.22
60.38
61.79
62.31
61.70
59.83
56.87
53.27
49.67
46.69
44.64
43.46
42.74
41.99
40.88
39.46
38.05
37.09
36.72
36.61
36.00
33.99
29.99
24.00
16.63
8.85
1.57
-4.76
-10.21
-15.37
-21.06
-28.20
-37.50
-49.11
-62.27
-74.98
-84.27
-86.93
-80.61
-64.81
-41.29
-13.45
14.74
40.05
60.75
76.70
88.74
97.89
104.76
109.43
111.65
111.25
108.43
103.75
98.07
92.13
86.43
80.98
75.50
69.60
63.12
56.16
49.06
42.18
35.67
29.33
22.70
15.29
6.76
-2.90
-13.24
-23.61
-33.34
-42.05
-49.83
-57.21
-64.98
-73.94
-84.62
-97.17
-111.30
-126.26
-140.78
-153.06
-161.01
-162.74
-157.16
-144.50
-126.34
-105.24
-83.86
-64.20
-47.28
-33.10
-21.23
-11.23
-2.95
3.57
8.40
11.89
14.65
17.25
19.96
22.58
24.63
25.63
25.47
24.47
23.19
22.03
20.94
19.41
16.68
12.16
5.78
-1.99
-10.24
-18.05
-24.79
-30.41
-35.37
-40.55
-46.96
-55.37
-65.93
-77.84
-89.26
-97.57
-100.13
-95.13
-82.41
-63.59
-41.65
-19.86
-0.74
14.56
26.25
35.35
42.87
49.39
54.93
59.29
62.40
64.48
65.98
67.25
68.31
68.82
68.25
66.15
62.50
57.71
52.48
47.48
42.92
38.41
33.18
26.35
17.51
6.94
-4.40
-15.23
-24.45
-31.59
-36.98
-41.63
-46.89
-53.98
-63.70
-75.97
-89.65
-102.55
-111.74
-114.40
-108.67
-94.51
-73.75
-49.57
-25.42
-3.89
13.87
28.07
39.68
49.64
58.38
65.77
71.39
74.97
76.64
76.88
76.31
75.37
74.15
72.45
69.94
66.44
62.07
57.32
52.76
48.81
45.49
42.33
38.53
33.26
26.03
16.94
6.66
-3.73
-13.22
-21.21
-27.76
-33.53
-39.51
-46.72
-55.88
-67.24
-80.39
-94.06
-106.12
-113.87
-114.70
-107.04
-91.07
-68.94
-44.09
-20.12
0.40
16.50
28.66
38.07
45.75
52.16
57.15
60.48
62.16
62.66
62.71
62.91
63.45
64.03
63.96
62.60
59.68
55.46
50.67
46.11
42.29
39.13
35.95
31.89
26.23
18.87
10.32
1.56
-6.37
-12.79
-17.61
-21.35
-24.94
-29.43
-35.73
-44.42
-55.45
-68.00
-80.32
-89.89
-94.00
-90.62
-79.19
-61.04
-39.07
-16.75
3.06
18.85
30.67
39.54
46.58
52.41
57.03
60.04
61.19
60.66
59.10
57.29
55.86
54.96
54.29
53.27
51.38
48.37
44.37
39.83
35.29
31.15
27.40
23.69
19.40
13.98
7.18
-0.75
-9.12
-17.08
-23.96
-29.53
-34.09
-38.33
-43.08
-49.07
-56.91
-66.87
-78.74
-91.49
-103.08
-110.75
-111.73
-104.30
-88.57
-66.72
-42.23
-18.73
1.24
16.72
28.22
36.94
44.01
50.06
55.18
59.23
62.12
63.96
64.94
65.19
64.75
63.58
61.68
59.21
56.46
53.78
51.41
49.30
47.14
44.48
40.92
36.35
31.00
25.30
19.66
14.23
8.86
3.15
-3.18
-10.19
-17.55
-24.76
-31.34
-37.09
-42.17
-47.06
-52.47
-59.17
-67.78
-78.49
-90.58
-102.19
-110.47
-112.41
-105.90
-90.75
-68.97
-44.13
-20.06
0.40
16.17
27.71
36.25
42.97
48.47
52.85
56.07
58.24
59.74
60.94
62.03
62.84
62.97
62.02
59.82
56.64
53.09
49.86
47.49
46.04
45.07
43.80
41.40
37.43
32.01
25.81
19.71
14.44
10.22
6.67
3.03
-1.50
-7.30
-14.15
-21.37
-28.05
-33.55
-37.78
-41.24
-44.86
-49.68
-56.55
-65.87
-77.28
-89.46
-100.17
-106.61
-106.20
-97.53
-81.09
-59.30
-35.73
-13.93
3.75
16.66
25.56
31.83
36.62
40.48
43.40
45.21
45.88
45.71
45.12
44.51
44.11
43.90
43.66
43.13
42.04
40.23
37.73
34.66
31.22
27.56
23.72
19.63
15.17
10.25
4.89
-0.84
-6.73
-12.55
-18.03
-22.93
-27.09
-30.55
-33.63
-36.83
-40.92
-46.69
-54.74
-65.11
-76.93
-88.18
-96.02
-97.53
-90.78
-75.74
-54.46
-30.49
-7.62
11.38
25.39
34.88
41.16
45.51
48.69
50.86
51.84
51.57
50.22
48.26
46.22
44.50
43.24
42.30
41.36
40.09
38.30
35.98
33.27
30.35
27.34
24.25
20.98
17.38
13.22
8.31
2.59
-3.87
-10.76
-17.62
-24.01
-29.63
-34.44
-38.67
-42.75
-47.25
-52.80
-60.08
-69.58
-81.19
-93.76
-104.96
-111.73
-111.22
-101.97
-84.61
-61.82
-37.34
-14.75
3.70
17.41
27.16
34.26
39.86
44.57
48.54
51.67
53.90
55.30
55.94
55.90
55.23
53.91
52.07
49.94
47.89
46.26
45.18
44.45
43.57
41.95
39.16
35.09
30.04
24.49
18.91
13.52
8.24
2.77
-3.22
-9.88
-17.06
-24.38
-31.26
-37.28
-42.32
-46.73
-51.31
-57.10
-65.11
-75.81
-88.62
-101.67
-112.00
-116.25
-111.87
-98.15
-76.67
-50.86
-24.84
-2.07
15.64
28.22
36.78
42.75
47.24
50.85
53.80
56.23
58.31
60.22
61.96
63.34
63.94
63.33
61.32
58.11
54.29
50.71
48.08
46.64
45.99
45.23
43.31
39.51
33.84
26.98
20.04
13.97
9.19
5.36
1.61
-3.06
-9.20
-16.72
-24.81
-32.47
-38.85
-43.70
-47.46
-51.05
-55.58
-62.05
-71.06
-82.59
-95.62
-108.03
-116.80
-118.81
-111.90
-95.89
-72.91
-46.77
-21.63
-0.54
15.31
26.50
34.56
40.93
46.36
50.93
54.41
56.74
58.18
59.18
60.08
60.92
61.39
61.04
59.65
57.32
54.61
52.15
50.38
49.23
48.07
46.02
42.37
37.02
30.55
23.97
18.21
13.68
10.11
6.75
2.73
-2.49
-8.90
-16.02
-23.15
-29.66
-35.17
-39.72
-43.67
-47.66
-52.58
-59.36
-68.62
-80.21
-92.66
-103.23
-108.49
-105.51
-93.11
-72.54
-47.24
-21.57
0.73
17.64
29.11
36.50
41.42
45.02
47.67
49.29
49.81
49.44
48.69
48.08
47.94
48.24
48.73
49.04
48.84
47.98
46.39
44.11
41.15
37.52
33.25
28.45
23.33
18.20
13.23
8.45
3.66
-1.46
-7.18
-13.56
-20.30
-26.92
-32.90
-37.96
-42.24
-46.29
-51.00
-57.34
-66.06
-77.12
-89.33
-100.30
-106.86
-106.12
-96.59
-78.91
-55.82
-31.19
-8.70
9.34
22.41
31.39
37.75
42.69
46.77
50.00
52.27
53.64
54.44
55.03
55.61
56.02
55.89
54.89
53.01
50.62
48.37
46.80
45.98
45.41
44.21
41.52
36.91
30.65
23.57
16.74
11.05
6.79
3.55
0.43
-3.59
-9.19
-16.36
-24.43
-32.30
-39.01
-44.16
-48.11
-51.90
-56.86
-64.18
-74.48
-87.38
-101.28
-113.45
-120.57
-119.71
-109.44
-90.49
-65.71
-39.14
-14.63
5.30
20.05
30.52
38.28
44.68
50.39
55.43
59.51
62.49
64.49
65.87
67.03
68.13
69.07
69.50
69.03
67.45
64.90
61.82
58.76
56.14
53.94
51.74
48.83
44.64
38.96
32.13
24.91
18.18
12.58
8.28
4.86
1.53
-2.57
-8.00
-14.84
-22.64
-30.57
-37.82
-43.88
-48.75
-52.97
-57.38
-62.95
-70.54
-80.65
-93.10
-106.76
-119.38
-127.86
-129.10
-121.12
-103.94
-79.87
-52.77
-26.75
-4.83
11.88
24.01
33.13
40.81
47.96
54.71
60.76
65.75
69.56
72.31
74.21
75.40
75.84
75.44
74.07
71.82
68.93
65.84
62.97
60.58
58.63
56.77
54.47
51.17
46.56
40.69
34.01
27.19
20.96
15.76
11.60
8.05
4.40
-0.05
-5.68
-12.47
-19.92
-27.32
-34.02
-39.66
-44.30
-48.36
-52.51
-57.51
-64.09
-72.82
-83.74
-96.03
-107.68
-115.75
-117.09
-109.62
-93.25
-70.19
-44.25
-19.48
1.19
16.71
27.70
35.60
41.74
46.81
50.91
53.89
55.77
56.86
57.55
58.06
58.33
58.07
56.95
54.92
52.23
49.46
47.17
45.65
44.70
43.62
41.56
37.89
32.51
25.98
19.31
13.47
8.95
5.54
2.42
-1.40
-6.61
-13.22
-20.58
-27.67
-33.63
-38.13
-41.51
-44.72
-48.95
-55.29
-64.36
-75.94
-88.66
-100.05
-106.98
-106.65
-97.61
-80.43
-57.76
-33.39
-10.99
7.11
20.34
29.58
36.29
41.64
46.13
49.69
52.12
53.49
54.15
54.66
55.37
56.28
57.02
57.10
56.19
54.38
52.14
50.09
48.62
47.66
46.65
44.71
41.13
35.72
29.01
21.97
15.66
10.66
6.86
3.48
-0.57
-6.10
-13.33
-21.73
-30.29
-37.97
-44.15
-48.85
-52.70
-56.74
-62.09
-69.70
-80.02
-92.64
-105.94
-117.18
-123.02
-120.61
-108.77
-88.67
-63.59
-37.74
-14.76
3.43
16.85
26.84
34.99
42.35
49.16
55.18
60.17
64.15
67.36
69.98
72.01
73.23
73.31
72.16
69.91
66.95
63.79
60.88
58.43
56.40
54.48
52.13
48.83
44.21
38.24
31.27
23.98
17.09
11.17
6.40
2.52
-1.08
-5.15
-10.24
-16.54
-23.72
-31.09
-37.85
-43.45
-47.80
-51.33
-54.85
-59.32
-65.64
-74.38
-85.52
-98.15
-110.25
-118.92
-121.10
-114.66
-99.39
-77.30
-52.04
-27.58
-6.84
9.06
20.70
29.56
37.05
43.96
50.34
55.88
60.31
63.58
65.92
67.57
68.72
69.34
69.26
68.32
66.43
63.78
60.75
57.83
55.36
53.33
51.36
48.81
45.14
40.13
34.06
27.50
21.23
15.84
11.61
8.38
5.62
2.62
-1.28
-6.48
-12.93
-20.12
-27.30
-33.71
-38.93
-43.05
-46.60
-50.47
-55.56
-62.62
-71.98
-83.24
-95.07
-105.17
-110.68
-108.98
-98.77
-80.73
-57.49
-32.81
-10.27
7.88
21.16
30.47
37.24
42.55
46.82
49.97
51.88
52.74
53.05
53.37
53.96
54.69
55.10
54.73
53.35
51.14
48.55
46.11
44.16
42.60
40.99
38.62
34.90
29.61
23.11
16.19
9.86
4.85
1.26
-1.50
-4.49
-8.70
-14.57
-21.81
-29.49
-36.54
-42.24
-46.48
-49.79
-53.09
-57.39
-63.54
-72.02
-82.65
-94.29
-104.80
-111.35
-111.25
-102.98
-87.01
-65.76
-42.79
-21.54
-4.09
9.21
19.40
27.99
36.12
44.09
51.46
57.58
61.97
64.62
65.84
66.04
65.56
64.46
62.67
60.18
57.18
54.16
51.79
50.61
50.80
51.96
53.19
53.36
51.52
47.24
40.80
33.07
25.23
18.30
12.87
8.86
5.66
2.48
-1.34
-6.02
-11.28
-16.57
-21.33
-25.33
-28.81
-32.40
-36.93
-43.20
-51.74
-62.55
-74.77
-86.49
-94.87
-96.80
-89.87
-73.56
-49.73
-22.27
4.05
25.06
38.28
43.38
41.89
36.42
29.83
24.49
21.82
22.13
24.65
27.99
30.65
31.63
30.67
28.16
24.74
20.91
16.82
12.36
7.36
1.76
-4.36
-10.75
-17.03
-22.75
-27.43
-30.79
-32.86
-34.09
-35.19
-36.88
-39.47
-42.59
-45.27
-46.25
-44.51
-39.75
-32.62
-24.69
-18.23
-15.70
-19.08
-28.97
-43.98
-60.67
-74.45
-81.10
-78.39
-66.91
-49.57
-30.17
-11.59
5.20
21.02
37.42
55.45
74.91
94.41
111.86
125.00
131.74
130.55
120.99
104.31
83.61
63.14
46.91
37.07
33.11
32.28
31.03
26.79
18.93
8.69
-1.81
-10.68
-16.96
-20.48
-21.37
-19.68
-15.38
-8.84
-1.30
5.20
8.43
7.06
1.59
-5.45
-10.29
-9.56
-1.81
11.81
28.07
43.20
54.59
61.65
65.66
68.57
71.74
75.28
78.27
79.63
79.00
77.12
75.41
75.17
76.78
79.41
81.39
80.97
77.02
69.35
58.62
45.75
31.52
16.28
0.08
-17.05
-34.83
-52.68
-69.70
-84.91
-97.32
-106.19
-111.13
-112.25
-110.16
-105.91
-100.75
-96.05
-93.21
-93.53
-97.99
-106.69
-118.40
-130.44
-139.26
-141.58
-135.83
-122.75
-105.22
-86.96
-71.08
-59.00
-50.32
-43.51
-36.90
-29.49
-21.06
-11.94
-2.53
6.97
16.54
26.19
35.68
44.47
51.72
56.58
58.44
57.29
53.89
49.67
46.25
44.86
45.88
48.63
51.74
53.73
53.55
50.78
45.49
37.91
28.28
16.89
4.26
-8.78
-21.26
-32.43
-42.12
-50.87
-59.81
-70.12
-82.60
-97.13
-112.43
-126.18
-135.48
-137.76
-131.61
-117.32
-96.86
-73.06
-48.62
-25.32
-3.86
15.59
32.80
46.99
57.08
62.30
62.75
59.62
54.83
50.30
47.34
46.32
46.85
48.17
49.66
51.04
52.42
54.12
56.38
59.21
62.22
64.64
65.49
63.92
59.57
52.82
44.81
37.09
31.16
27.87
27.16
28.18
29.64
30.39
29.76
27.73
24.75
21.48
18.47
15.88
13.36
10.07
4.81
-3.67
-16.36
-33.53
-54.36
-76.70
-97.29
-112.43
-119.12
-116.05
-104.20
-86.57
-67.09
-49.20
-34.81
-24.05
-15.84
-8.87
-2.32
3.86
9.34
13.88
17.53
20.64
23.52
26.21
28.43
29.76
29.98
29.25
28.14
27.33
27.30
28.07
29.17
29.91
29.82
28.93
27.75
26.84
26.44
26.15
25.19
22.89
19.17
14.75
10.85
8.61
8.61
10.70
14.10
17.66
20.07
20.03
16.44
8.75
-2.62
-16.21
-29.85
-41.49
-50.02
-55.86
-60.69
-66.71
-75.46
-86.93
-99.31
-109.54
-114.29
-111.20
-99.65
-80.97
-57.90
-33.70
-11.16
8.06
23.53
35.70
45.35
53.14
59.37
64.11
67.31
69.02
69.35
68.41
66.30
63.10
58.99
54.32
49.64
45.59
42.66
41.04
40.49
40.39
39.97
38.54
35.73
31.57
26.55
21.43
16.99
13.84
12.22
11.98
12.72
13.88
14.90
15.20
14.22
11.42
6.37
-1.03
-10.39
-20.75
-30.83
-39.33
-45.33
-48.66
-49.90
-50.27
-51.30
-54.41
-60.63
-70.28
-82.82
-96.63
-109.22
-117.61
-119.08
-112.04
-96.51
-74.20
-47.94
-20.77
4.96
27.99
48.07
65.41
80.17
92.21
101.17
106.93
109.80
110.61
110.37
109.82
109.18
108.10
106.07
102.76
98.40
93.57
88.92
84.76
80.88
76.74
71.73
65.62
58.65
51.45
44.70
38.91
34.30
30.95
28.84
27.79
27.35
26.63
24.46
19.72
11.88
1.28
-10.88
-23.07
-33.99
-43.03
-50.27
-56.20
-61.30
-65.86
-70.14
-74.57
-79.96
-87.21
-96.69
-107.60
-117.76
-124.08
-123.71
-115.28
-99.49
-78.86
-56.60
-35.42
-16.67
-0.45
13.76
26.38
37.27
45.86
51.60
54.32
54.41
52.65
49.87
46.76
43.73
40.90
38.19
35.43
32.47
29.23
25.75
22.09
18.20
13.95
9.08
3.47
-2.77
-9.23
-15.31
-20.26
-23.27
-23.54
-20.49
-14.07
-5.12
4.60
12.72
16.94
15.77
8.89
-3.01
-18.71
-36.83
-55.97
-74.44
-90.11
-100.62
-104.14
-100.18
-89.95
-76.08
-61.51
-48.48
-37.89
-29.45
-22.36
-15.95
-9.96
-4.25
1.55
8.22
16.57
26.88
38.34
49.18
57.34
61.36
61.06
57.53
52.46
47.35
42.78
38.45
33.59
27.62
20.49
12.64
4.69
-2.95
-10.30
-17.55
-24.95
-32.48
-39.84
-46.67
-52.74
-57.98
-62.28
-65.04
-65.02
-60.47
-49.93
-33.07
-11.26
12.63
35.09
53.07
64.79
69.90
69.04
63.23
53.47
40.76
26.29
11.55
-1.80
-12.35
-19.32
-22.70
-23.13
-21.60
-19.15
-16.67
-14.75
-13.69
-13.47
-13.81
-14.26
-14.27
-13.30
-11.03
-7.56
-3.58
-0.28
1.02
-0.68
-5.48
-12.56
-20.54
-28.15
-34.96
-41.62
-49.62
-60.55
-75.12
-92.51
-110.18
-124.44
-131.65
-129.42
-117.47
-97.68
-73.39
-48.10
-24.40
-3.43
15.00
31.76
47.74
63.48
78.97
93.72
106.75
116.57
121.43
119.79
111.05
96.09
77.35
58.18
41.77
30.07
23.08
19.12
15.63
10.34
2.10
-8.85
-21.32
-33.88
-45.55
-56.08
-65.72
-74.79
-83.18
-90.32
-95.25
-97.11
-95.46
-90.52
-83.27
-75.27
-68.60
-65.67
-68.71
-79.00
-95.88
-116.13
-134.36
-144.53
-142.11
-126.06
-99.28
-67.53
-37.08
-12.40
5.05
16.57
24.76
31.91
39.15
46.45
53.27
59.23
64.41
69.26
74.32
80.02
86.70
94.53
103.62
113.85
124.76
135.38
144.24
149.59
149.81
143.91
131.88
114.93
95.19
75.25
57.54
43.78
34.60
29.56
27.37
26.30
24.60
20.98
14.86
6.52
-3.06
-12.45
-20.17
-25.02
-26.35
-24.28
-19.91
-15.33
-13.35
-16.65
-26.68
-42.59
-60.93
-76.45
-83.89
-79.97
-64.80
-41.74
-16.13
6.80
23.56
33.13
36.48
35.65
32.64
28.96
25.50
22.74
20.85
19.88
19.62
19.82
20.39
21.62
24.13
28.64
35.54
44.54
54.56
64.06
71.35
75.15
74.81
70.45
62.81
53.09
42.59
32.52
23.70
16.38
10.26
4.62
-1.41
-8.50
-16.93
-26.49
-36.54
-46.25
-54.78
-61.57
-66.50
-69.78
-71.83
-73.05
-73.72
-74.01
-74.12
-74.20
-74.24
-73.81
-71.91
-67.29
-58.95
-46.77
-31.72
-15.73
-0.95
11.07
19.81
25.75
29.86
32.97
35.41
36.99
37.43
36.73
35.37
34.25
34.37
36.42
40.60
46.62
53.73
61.02
67.50
72.31
74.85
74.82
72.16
66.99
59.46
49.74
38.07
24.95
11.22
-2.07
-13.93
-23.82
-31.97
-39.24
-46.89
-56.01
-67.19
-80.49
-95.50
-111.55
-127.74
-142.71
-154.50
-160.78
-159.44
-149.49
-131.70
-108.56
-83.50
-59.58
-38.52
-20.43
-4.38
10.62
24.95
38.22
49.70
59.02
66.36
72.39
77.77
82.73
86.97
89.85
90.84
89.73
86.72
82.22
76.65
70.22
62.92
54.69
45.58
35.96
26.52
18.07
11.18
5.93
1.77
-2.37
-7.79
-15.63
-26.57
-40.45
-56.05
-71.09
-82.47
-87.16
-83.11
-70.12
-50.09
-26.50
-3.29
16.45
31.26
41.40
48.19
53.14
57.18
60.47
62.66
63.28
62.19
59.66
56.29
52.73
49.44
46.55
43.90
41.20
38.18
34.65
30.58
25.99
20.95
15.49
9.66
3.57
-2.47
-8.06
-12.84
-16.83
-20.68
-25.65
-33.20
-44.12
-57.74
-71.59
-82.08
-85.69
-80.50
-67.03
-48.10
-27.70
-9.50
4.26
13.13
17.94
19.99
20.44
19.99
18.98
17.68
16.41
15.47
15.04
15.11
15.51
16.01
16.46
16.82
17.16
17.51
17.76
17.60
16.65
14.55
11.15
6.53
1.06
-4.79
-10.57
-16.00
-21.14
-26.50
-32.85
-40.83
-50.38
-60.26
-68.06
-70.99
-66.93
-55.42
-37.97
-17.45
3.01
21.03
35.53
46.54
54.56
60.07
63.25
64.07
62.62
59.25
54.49
49.01
43.35
37.91
32.81
27.96
23.18
18.27
13.21
8.08
3.09
-1.71
-6.43
-11.25
-16.27
-21.41
-26.38
-30.92
-35.10
-39.49
-45.10
-53.05
-64.06
-77.79
-92.60
-105.59
-113.38
-113.11
-103.46
-85.30
-61.43
-35.59
-11.23
9.51
26.17
39.44
50.47
60.11
68.64
75.97
81.90
86.34
89.21
90.41
89.81
87.38
83.44
78.60
73.61
68.96
64.57
59.80
53.83
46.04
36.46
25.70
14.67
4.16
-5.52
-14.55
-23.47
-32.83
-43.07
-54.45
-67.05
-80.52
-93.80
-105.00
-111.62
-111.32
-102.79
-86.46
-64.59
-40.39
-17.02
3.48
20.50
34.59
46.70
57.51
67.10
75.08
80.94
84.44
85.71
85.16
83.41
80.98
78.24
75.36
72.22
68.52
63.82
57.67
49.77
40.19
29.32
17.81
6.29
-4.77
-15.23
-25.07
-34.35
-43.22
-52.04
-61.38
-71.80
-83.27
-94.81
-104.43
-109.86
-109.69
-104.29
-95.79
-87.24
-80.96
-77.38
-74.93
-71.00
-63.50
-51.95
-37.60
-22.49
-8.40
3.94
14.82
24.92
34.71
44.18
53.11
61.45
69.51
77.79
86.43
94.74
101.25
104.20
102.38
95.64
85.01
72.09
58.34
44.62
31.32
19.07
9.65
6.25
12.88
32.79
66.68
111.50
160.71
205.96
239.66
257.25
258.23
245.80
225.12
201.44
178.71
159.07
143.05
129.99
118.31
105.79
90.12
69.86
45.45
19.58
-3.53
-19.87
-27.56
-28.03
-25.58
-25.62
-32.38
-47.30
-68.70
-92.87
-115.74
-134.40
-147.82
-156.85
-163.56
-170.19
-178.07
-186.76
-194.01
-196.41
-190.86
-175.99
-152.96
-125.09
-96.48
-70.43
-48.49
-30.54
-15.76
-3.66
5.42
10.77
12.07
10.13
6.74
3.96
3.18
4.50
6.86
8.61
8.43
5.82
1.13
-4.87
-11.65
-19.28
-28.40
-39.66
-53.09
-67.53
-80.63
-89.27
-90.32
-81.34
-61.03
-29.43
12.15
60.98
113.01
163.13
206.07
237.82
256.87
264.73
265.34
263.65
263.74
267.61
274.93
283.70
291.43
296.03
296.30
291.86
282.71
269.08
251.26
229.81
205.68
180.18
154.74
130.52
107.95
86.52
65.05
42.32
17.85
-7.80
-33.19
-56.88
-78.07
-97.00
-114.88
-133.18
-153.08
-175.06
-198.76
-223.11
-246.27
-265.56
-277.45
-277.84
-263.17
-231.76
-185.18
-128.59
-69.92
-17.81
20.67
41.76
45.46
34.80
14.55
-9.98
-33.73
-52.32
-62.65
-63.62
-56.77
-46.07
-36.87
-33.88
-39.59
-53.64
-73.46
-95.97
-119.26
-143.54
-170.69
-202.81
-240.28
-280.55
-318.33
-346.88
-360.25
-355.08
-331.33
-291.49
-239.07
-176.95
-106.97
-30.75
49.01
128.02
201.11
263.96
314.41
352.65
380.01
397.40
404.41
399.97
383.53
356.45
322.10
284.77
248.10
213.97
182.50
152.97
124.76
97.86
72.51
48.76
26.08
3.57
-19.94
-45.74
-75.03
-108.22
-144.10
-178.87
-206.14
-218.47
-209.95
-178.74
-127.97
-64.43
3.92
70.40
130.50
181.34
220.48
245.47
254.66
248.61
230.83
207.06
183.17
162.95
147.12
133.84
120.34
104.52
85.74
64.53
41.72
17.80
-7.37
-34.33
-63.54
-94.81
-127.20
-159.14
-188.88
-215.16
-237.68
-257.27
-275.69
-294.89
-316.00
-338.59
-360.36
-377.61
-386.22
-382.76
-365.54
-335.25
-295.04
-250.08
-206.60
-170.70
-147.32
-139.31
-147.12
-168.85
-200.91
-239.04
-279.32
-318.71
-355.13
-387.02
-412.98
-431.70
-442.32
-445.01
-441.07
-432.61
-421.65
-409.16
-394.85
-377.64
-356.96
-333.53
-309.59
-287.96
-270.88
-259.08
-251.73
-247.14
-243.63
-240.18
-236.52
-232.74
-228.86
-224.51
-218.96
-211.45
-201.41
-188.70
-173.64
-156.80
-138.80
-120.05
-100.80
-81.15
-61.19
-41.22
-21.70
-3.28
13.41
27.88
39.90
49.43
56.63
61.71
64.91
66.47
66.67
65.85
64.39
62.65
60.89
59.20
57.54
55.79
53.96
52.20
50.92
50.59
51.62
54.18
58.15
63.18
68.92
75.23
82.30
90.65
100.84
113.27
127.90
144.23
161.49
178.90
196.00
212.79
229.72
247.50
266.96
288.80
313.28
339.88
367.06
392.23
412.29
424.52
427.71
422.77
412.43
400.15
388.61
378.57
368.76
356.84
340.74
319.81
295.13
268.87
243.39
220.23
199.78
181.26
163.21
144.10
122.91
99.54
75.10
51.90
33.10
21.92
20.65
29.74
47.35
69.61
91.70
109.29
119.85
123.22
121.35
117.27
113.70
112.18
112.75
114.37
115.68
115.65
114.06
111.70
110.30
112.23
119.83
134.34
154.94
178.33
199.27
212.17
212.99
200.62
177.00
146.01
111.44
75.33
37.61
-2.86
-46.38
-90.81
-131.38
-162.12
-178.21
-178.08
-164.17
-141.91
-117.59
-96.32
-80.89
-71.92
-68.87
-70.88
-77.22
-87.06
-99.27
-112.58
-125.96
-139.04
-152.04
-165.01
-176.95
-184.98
-184.59
-171.00
-141.19
-95.99
-41.20
13.10
55.31
76.57
74.51
54.71
28.80
9.36
4.38
13.86
30.47
43.92
46.54
36.80
19.13
0.62
-13.14
-20.49
-23.19
-24.05
-24.80
-25.67
-26.66
-28.89
-34.61
-45.57
-60.87
-76.04
-84.39
-80.19
-61.69
-32.29
0.87
30.17
50.42
60.34
61.74
57.58
50.23
40.95
30.26
18.93
8.40
0.50
-3.26
-2.36
2.60
10.28
19.46
29.60
41.12
54.97
71.94
91.99
113.87
135.60
155.08
170.97
183.08
192.17
199.17
204.19
205.95
202.01
189.49
166.17
131.23
85.23
29.66
-33.33
-100.57
-167.17
-226.28
-270.45
-294.25
-297.10
-284.46
-266.05
-251.88
-247.89
-253.89
-264.91
-275.02
-281.16
-284.53
-288.77
-296.43
-306.29
-313.29
-311.08
-295.48
-266.54
-228.14
-185.68
-143.43
-103.08
-64.30
-26.47
9.61
41.36
65.44
79.59
84.01
81.45
76.13
72.01
71.37
74.30
78.90
82.10
80.76
72.73
57.85
38.41
18.79
4.27
-0.77
5.59
22.17
45.34
70.51
93.86
113.25
128.25
139.32
146.99
151.41
152.55
150.56
146.09
140.18
133.82
127.53
121.12
113.77
104.56
92.91
78.96
63.55
47.89
33.11
19.85
8.17
-2.26
-11.88
-20.96
-29.49
-37.33
-44.50
-51.34
-58.63
-67.27
-77.80
-89.75
-101.34
-109.68
-111.61
-104.93
-89.32
-66.69
-40.56
-14.87
7.31
24.49
36.69
44.86
50.08
53.08
54.30
54.06
52.90
51.48
50.40
49.88
49.75
49.52
48.78
47.36
45.42
43.18
40.69
37.63
33.40
27.50
19.76
10.59
0.84
-8.54
-16.87
-23.98
-30.21
-36.31
-43.27
-52.09
-63.39
-76.91
-91.08
-103.00
-109.10
-106.39
-93.71
-72.44
-46.12
-19.12
4.93
24.24
38.97
50.40
59.79
67.61
73.52
76.94
77.76
76.61
74.65
72.94
71.93
71.29
70.13
67.70
63.74
58.79
53.82
49.71
46.68
44.15
40.95
35.90
28.40
18.80
8.27
-1.74
-10.10
-16.48
-21.45
-26.19
-32.07
-40.22
-51.17
-64.59
-79.06
-92.06
-100.45
-101.25
-92.77
-75.36
-51.56
-25.28
-0.48
20.10
35.58
46.60
54.45
60.17
64.14
66.22
66.26
64.57
61.97
59.50
57.91
57.28
57.03
56.21
54.01
50.24
45.40
40.43
36.16
32.89
30.16
26.95
22.20
15.39
6.74
-2.75
-11.79
-19.33
-24.97
-29.11
-32.73
-37.08
-43.22
-51.77
-62.64
-74.92
-86.72
-95.44
-98.30
-93.21
-79.65
-59.05
-34.46
-9.63
12.27
29.49
41.91
50.53
56.63
61.04
63.93
65.07
64.29
61.86
58.54
55.29
52.93
51.81
51.70
51.95
51.77
50.55
48.03
44.34
39.83
34.89
29.84
24.77
19.62
14.15
8.14
1.43
-5.94
-13.61
-21.09
-27.78
-33.35
-37.79
-41.56
-45.46
-50.35
-57.02
-65.93
-77.06
-89.55
-101.54
-110.32
-112.87
-106.81
-91.47
-68.39
-40.95
-13.33
10.92
29.85
43.35
52.57
58.92
63.47
66.53
68.13
68.28
67.37
66.05
64.97
64.46
64.35
64.12
63.20
61.32
58.65
55.64
52.74
50.03
47.14
43.35
38.05
31.07
22.93
14.64
7.28
1.54
-2.59
-5.86
-9.40
-14.21
-20.70
-28.50
-36.59
-43.82
-49.39
-53.24
-56.14
-59.35
-64.25
-71.90
-82.60
-95.58
-108.81
-119.20
-123.25
-118.18
-103.02
-79.26
-50.48
-21.24
4.50
24.52
38.66
48.16
54.69
59.43
62.84
64.84
65.45
64.97
64.06
63.39
63.34
63.84
64.45
64.54
63.70
61.78
59.08
56.08
53.25
50.75
48.40
45.69
42.01
36.94
30.48
23.08
15.56
8.77
3.33
-0.68
-3.73
-6.70
-10.49
-15.70
-22.27
-29.60
-36.65
-42.58
-47.00
-50.25
-53.18
-56.88
-62.30
-70.04
-80.17
-92.14
-104.48
-114.78
-120.00
-117.25
-104.95
-83.70
-56.40
-27.39
-0.98
20.00
34.81
44.51
50.88
55.39
58.63
60.49
60.74
59.48
57.41
55.47
54.46
54.57
55.41
56.16
56.06
54.71
52.24
49.19
46.17
43.51
41.11
38.49
35.07
30.48
24.73
18.24
11.65
5.57
0.37
-3.85
-7.34
-10.50
-13.85
-17.83
-22.72
-28.48
-34.77
-40.97
-46.50
-50.98
-54.48
-57.52
-60.95
-65.79
-72.89
-82.62
-94.43
-106.65
-116.47
-120.54
-116.00
-101.68
-78.76
-50.60
-21.70
3.85
23.64
37.33
46.22
52.21
56.76
60.49
63.28
64.78
64.92
64.00
62.59
61.21
60.14
59.28
58.36
57.08
55.36
53.28
51.09
48.94
46.83
44.56
41.80
38.28
33.92
28.80
23.17
17.30
11.49
5.95
0.84
-3.73
-7.76
-11.35
-14.80
-18.52
-22.93
-28.24
-34.37
-40.87
-47.11
-52.55
-57.01
-60.75
-64.43
-68.94
-75.15
-83.68
-94.57
-106.90
-118.57
-126.45
-127.17
-118.27
-99.39
-72.72
-42.44
-13.29
11.02
28.87
40.79
48.52
53.95
58.25
61.72
64.22
65.63
66.20
66.40
66.67
67.08
67.34
66.97
65.64
63.38
60.61
57.88
55.60
